10.0100 184.0
10.0300 182.0
10.0500 183.0
10.0700 166.0
10.0900 159.0
10.1100 187.0
10.1300 169.0
10.1500 194.0
10.1700 163.0
10.1900 174.0
10.2100 184.0
10.2300 164.0
10.2500 168.0
10.2700 171.0
10.2900 172.0
10.3100 189.0
10.3300 187.0
10.3500 159.0
10.3700 149.0
10.3900 141.0
10.4100 157.0
10.4300 177.0
10.4500 174.0
10.4700 158.0
10.4900 167.0
10.5100 149.0
10.5300 166.0
10.5500 162.0
10.5700 169.0
10.5900 185.0
10.6100 165.0
10.6300 160.0
10.6500 148.0
10.6700 167.0
10.6900 170.0
10.7100 156.0
10.7300 147.0
10.7500 162.0
10.7700 162.0
10.7900 148.0
10.8100 153.0
10.8300 162.0
10.8500 159.0
10.8700 183.0
10.8900 152.0
10.9100 155.0
10.9300 147.0
10.9500 147.0
10.9700 149.0
10.9900 151.0
11.0100 148.0
11.0300 149.0
11.0500 141.0
11.0700 167.0
11.0900 140.0
11.1100 150.0
11.1300 148.0
11.1500 157.0
11.1700 156.0
11.1900 139.0
11.2100 144.0
11.2300 145.0
11.2500 149.0
11.2700 155.0
11.2900 145.0
11.3100 171.0
11.3300 151.0
11.3500 170.0
11.3700 154.0
11.3900 156.0
11.4100 160.0
11.4300 164.0
11.4500 146.0
11.4700 165.0
11.4900 143.0
11.5100 158.0
11.5300 138.0
11.5500 161.0
11.5700 161.0
11.5900 152.0
11.6100 152.0
11.6300 149.0
11.6500 162.0
11.6700 163.0
11.6900 140.0
11.7100 161.0
11.7300 148.0
11.7500 158.0
11.7700 151.0
11.7900 146.0
11.8100 140.0
11.8300 151.0
11.8500 152.0
11.8700 133.0
11.8900 151.0
11.9100 133.0
11.9300 142.0
11.9500 145.0
11.9700 142.0
11.9900 150.0
12.0100 161.0
12.0300 134.0
12.0500 152.0
12.0700 133.0
12.0900 148.0
12.1100 150.0
12.1300 150.0
12.1500 149.0
12.1700 129.0
12.1900 143.0
12.2100 138.0
12.2300 142.0
12.2500 127.0
12.2700 143.0
12.2900 128.0
12.3100 135.0
12.3300 152.0
12.3500 144.0
12.3700 138.0
12.3900 148.0
12.4100 152.0
12.4300 129.0
12.4500 142.0
12.4700 140.0
12.4900 154.0
12.5100 140.0
12.5300 148.0
12.5500 111.0
12.5700 152.0
12.5900 139.0
12.6100 135.0
12.6300 100.0
12.6500 148.0
12.6700 117.0
12.6900 135.0
12.7100 130.0
12.7300 122.0
12.7500 139.0
12.7700 128.0
12.7900 146.0
12.8100 129.0
12.8300 155.0
12.8500 132.0
12.8700 132.0
12.8900 139.0
12.9100 139.0
12.9300 138.0
12.9500 135.0
12.9700 149.0
12.9900 132.0
13.0100 123.0
13.0300 119.0
13.0500 105.0
13.0700 106.0
13.0900 130.0
13.1100 127.0
13.1300 146.0
13.1500 123.0
13.1700 129.0
13.1900 121.0
13.2100 140.0
13.2300 123.0
13.2500 133.0
13.2700 133.0
13.2900 116.0
13.3100 122.0
13.3300 128.0
13.3500 139.0
13.3700 127.0
13.3900 135.0
13.4100 116.0
13.4300 141.0
13.4500 126.0
13.4700 124.0
13.4900 133.0
13.5100 114.0
13.5300 137.0
13.5500 126.0
13.5700 121.0
13.5900 129.0
13.6100 127.0
13.6300 121.0
13.6500 115.0
13.6700 118.0
13.6900 107.0
13.7100 116.0
13.7300 134.0
13.7500 113.0
13.7700 128.0
13.7900 155.0
13.8100 102.0
13.8300 127.0
13.8500 109.0
13.8700 131.0
13.8900 97.0
13.9100 124.0
13.9300 130.0
13.9500 100.0
13.9700 153.0
13.9900 134.0
14.0100 107.0
14.0300 122.0
14.0500 108.0
14.0700 150.0
14.0900 128.0
14.1100 143.0
14.1300 138.0
14.1500 118.0
14.1700 117.0
14.1900 109.0
14.2100 141.0
14.2300 129.0
14.2500 107.0
14.2700 114.0
14.2900 128.0
14.3100 119.0
14.3300 119.0
14.3500 121.0
14.3700 123.0
14.3900 125.0
14.4100 114.0
14.4300 106.0
14.4500 123.0
14.4700 102.0
14.4900 132.0
14.5100 127.0
14.5300 106.0
14.5500 107.0
14.5700 108.0
14.5900 102.0
14.6100 99.0
14.6300 118.0
14.6500 89.0
14.6700 112.0
14.6900 121.0
14.7100 105.0
14.7300 106.0
14.7500 114.0
14.7700 106.0
14.7900 112.0
14.8100 117.0
14.8300 112.0
14.8500 109.0
14.8700 111.0
14.8900 98.0
14.9100 103.0
14.9300 113.0
14.9500 110.0
14.9700 101.0
14.9900 112.0
15.0100 111.0
15.0300 131.0
15.0500 92.0
15.0700 104.0
15.0900 77.0
15.1100 96.0
15.1300 90.0
15.1500 126.0
15.1700 104.0
15.1900 97.0
15.2100 109.0
15.2300 98.0
15.2500 115.0
15.2700 105.0
15.2900 97.0
15.3100 98.0
15.3300 98.0
15.3500 105.0
15.3700 112.0
15.3900 110.0
15.4100 142.0
15.4300 101.0
15.4500 102.0
15.4700 101.0
15.4900 95.0
15.5100 123.0
15.5300 100.0
15.5500 92.0
15.5700 122.0
15.5900 105.0
15.6100 99.0
15.6300 116.0
15.6500 106.0
15.6700 94.0
15.6900 115.0
15.7100 80.0
15.7300 106.0
15.7500 82.0
15.7700 119.0
15.7900 123.0
15.8100 98.0
15.8300 115.0
15.8500 93.0
15.8700 103.0
15.8900 89.0
15.9100 91.0
15.9300 102.0
15.9500 92.0
15.9700 108.0
15.9900 98.0
16.0100 117.0
16.0300 95.0
16.0500 98.0
16.0700 92.0
16.0900 92.0
16.1100 108.0
16.1300 140.0
16.1500 131.0
16.1700 119.0
16.1900 107.0
16.2100 150.0
16.2300 134.0
16.2500 159.0
16.2700 157.0
16.2900 158.0
16.3100 166.0
16.3300 177.0
16.3500 196.0
16.3700 179.0
16.3900 177.0
16.4100 179.0
16.4300 188.0
16.4500 156.0
16.4700 142.0
16.4900 114.0
16.5100 103.0
16.5300 115.0
16.5500 98.0
16.5700 103.0
16.5900 94.0
16.6100 76.0
16.6300 97.0
16.6500 105.0
16.6700 105.0
16.6900 80.0
16.7100 86.0
16.7300 90.0
16.7500 88.0
16.7700 91.0
16.7900 112.0
16.8100 87.0
16.8300 92.0
16.8500 82.0
16.8700 112.0
16.8900 99.0
16.9100 99.0
16.9300 100.0
16.9500 101.0
16.9700 93.0
16.9900 94.0
17.0100 80.0
17.0300 99.0
17.0500 85.0
17.0700 103.0
17.0900 80.0
17.1100 90.0
17.1300 97.0
17.1500 104.0
17.1700 85.0
17.1900 93.0
17.2100 82.0
17.2300 96.0
17.2500 90.0
17.2700 84.0
17.2900 89.0
17.3100 90.0
17.3300 88.0
17.3500 100.0
17.3700 85.0
17.3900 82.0
17.4100 93.0
17.4300 86.0
17.4500 95.0
17.4700 78.0
17.4900 101.0
17.5100 96.0
17.5300 88.0
17.5500 82.0
17.5700 80.0
17.5900 94.0
17.6100 85.0
17.6300 81.0
17.6500 89.0
17.6700 80.0
17.6900 105.0
17.7100 95.0
17.7300 95.0
17.7500 88.0
17.7700 93.0
17.7900 86.0
17.8100 76.0
17.8300 97.0
17.8500 93.0
17.8700 105.0
17.8900 90.0
17.9100 92.0
17.9300 102.0
17.9500 107.0
17.9700 123.0
17.9900 112.0
18.0100 119.0
18.0300 152.0
18.0500 146.0
18.0700 163.0
18.0900 169.0
18.1100 217.0
18.1300 223.0
18.1500 301.0
18.1700 330.0
18.1900 317.0
18.2100 359.0
18.2300 370.0
18.2500 443.0
18.2700 432.0
18.2900 442.0
18.3100 388.0
18.3300 435.0
18.3500 349.0
18.3700 295.0
18.3900 264.0
18.4100 214.0
18.4300 179.0
18.4500 167.0
18.4700 139.0
18.4900 122.0
18.5100 106.0
18.5300 107.0
18.5500 102.0
18.5700 92.0
18.5900 98.0
18.6100 96.0
18.6300 95.0
18.6500 83.0
18.6700 92.0
18.6900 95.0
18.7100 84.0
18.7300 80.0
18.7500 72.0
18.7700 105.0
18.7900 77.0
18.8100 97.0
18.8300 80.0
18.8500 83.0
18.8700 77.0
18.8900 94.0
18.9100 96.0
18.9300 94.0
18.9500 91.0
18.9700 88.0
18.9900 83.0
19.0100 83.0
19.0300 73.0
19.0500 97.0
19.0700 79.0
19.0900 89.0
19.1100 67.0
19.1300 77.0
19.1500 79.0
19.1700 61.0
19.1900 78.0
19.2100 65.0
19.2300 72.0
19.2500 76.0
19.2700 77.0
19.2900 80.0
19.3100 88.0
19.3300 76.0
19.3500 68.0
19.3700 99.0
19.3900 65.0
19.4100 64.0
19.4300 79.0
19.4500 73.0
19.4700 77.0
19.4900 77.0
19.5100 77.0
19.5300 51.0
19.5500 63.0
19.5700 90.0
19.5900 91.0
19.6100 81.0
19.6300 78.0
19.6500 71.0
19.6700 93.0
19.6900 69.0
19.7100 86.0
19.7300 82.0
19.7500 73.0
19.7700 68.0
19.7900 88.0
19.8100 70.0
19.8300 80.0
19.8500 81.0
19.8700 87.0
19.8900 73.0
19.9100 87.0
19.9300 77.0
19.9500 78.0
19.9700 76.0
19.9900 80.0
20.0100 80.0
20.0300 75.0
20.0500 73.0
20.0700 90.0
20.0900 80.0
20.1100 74.0
20.1300 70.0
20.1500 73.0
20.1700 66.0
20.1900 66.0
20.2100 72.0
20.2300 93.0
20.2500 67.0
20.2700 82.0
20.2900 78.0
20.3100 84.0
20.3300 79.0
20.3500 71.0
20.3700 75.0
20.3900 75.0
20.4100 68.0
20.4300 76.0
20.4500 53.0
20.4700 77.0
20.4900 72.0
20.5100 100.0
20.5300 63.0
20.5500 75.0
20.5700 71.0
20.5900 64.0
20.6100 78.0
20.6300 61.0
20.6500 75.0
20.6700 67.0
20.6900 90.0
20.7100 88.0
20.7300 67.0
20.7500 70.0
20.7700 78.0
20.7900 61.0
20.8100 74.0
20.8300 73.0
20.8500 73.0
20.8700 71.0
20.8900 74.0
20.9100 56.0
20.9300 88.0
20.9500 70.0
20.9700 59.0
20.9900 86.0
21.0100 76.0
21.0300 82.0
21.0500 70.0
21.0700 86.0
21.0900 56.0
21.1100 69.0
21.1300 77.0
21.1500 84.0
21.1700 75.0
21.1900 73.0
21.2100 72.0
21.2300 72.0
21.2500 83.0
21.2700 78.0
21.2900 75.0
21.3100 65.0
21.3300 77.0
21.3500 77.0
21.3700 69.0
21.3900 66.0
21.4100 60.0
21.4300 67.0
21.4500 80.0
21.4700 61.0
21.4900 81.0
21.5100 73.0
21.5300 72.0
21.5500 63.0
21.5700 68.0
21.5900 70.0
21.6100 73.0
21.6300 85.0
21.6500 81.0
21.6700 85.0
21.6900 65.0
21.7100 70.0
21.7300 66.0
21.7500 65.0
21.7700 72.0
21.7900 76.0
21.8100 80.0
21.8300 66.0
21.8500 71.0
21.8700 79.0
21.8900 58.0
21.9100 77.0
21.9300 94.0
21.9500 72.0
21.9700 67.0
21.9900 69.0
22.0100 76.0
22.0300 71.0
22.0500 78.0
22.0700 85.0
22.0900 60.0
22.1100 63.0
22.1300 81.0
22.1500 76.0
22.1700 76.0
22.1900 68.0
22.2100 82.0
22.2300 77.0
22.2500 69.0
22.2700 62.0
22.2900 71.0
22.3100 83.0
22.3300 74.0
22.3500 73.0
22.3700 69.0
22.3900 87.0
22.4100 79.0
22.4300 77.0
22.4500 63.0
22.4700 84.0
22.4900 69.0
22.5100 83.0
22.5300 84.0
22.5500 68.0
22.5700 46.0
22.5900 82.0
22.6100 75.0
22.6300 83.0
22.6500 62.0
22.6700 78.0
22.6900 70.0
22.7100 66.0
22.7300 86.0
22.7500 66.0
22.7700 75.0
22.7900 78.0
22.8100 70.0
22.8300 67.0
22.8500 76.0
22.8700 79.0
22.8900 62.0
22.9100 66.0
22.9300 83.0
22.9500 79.0
22.9700 77.0
22.9900 110.0
23.0100 122.0
23.0300 119.0
23.0500 147.0
23.0700 142.0
23.0900 169.0
23.1100 161.0
23.1300 169.0
23.1500 185.0
23.1700 171.0
23.1900 170.0
23.2100 169.0
23.2300 131.0
23.2500 141.0
23.2700 142.0
23.2900 118.0
23.3100 87.0
23.3300 76.0
23.3500 109.0
23.3700 77.0
23.3900 93.0
23.4100 74.0
23.4300 74.0
23.4500 66.0
23.4700 81.0
23.4900 70.0
23.5100 79.0
23.5300 69.0
23.5500 74.0
23.5700 83.0
23.5900 75.0
23.6100 64.0
23.6300 67.0
23.6500 53.0
23.6700 75.0
23.6900 83.0
23.7100 68.0
23.7300 62.0
23.7500 84.0
23.7700 78.0
23.7900 63.0
23.8100 54.0
23.8300 56.0
23.8500 66.0
23.8700 81.0
23.8900 80.0
23.9100 72.0
23.9300 63.0
23.9500 84.0
23.9700 58.0
23.9900 57.0
24.0100 65.0
24.0300 84.0
24.0500 65.0
24.0700 52.0
24.0900 70.0
24.1100 62.0
24.1300 78.0
24.1500 66.0
24.1700 58.0
24.1900 82.0
24.2100 65.0
24.2300 63.0
24.2500 60.0
24.2700 56.0
24.2900 86.0
24.3100 61.0
24.3300 71.0
24.3500 83.0
24.3700 65.0
24.3900 67.0
24.4100 66.0
24.4300 74.0
24.4500 68.0
24.4700 64.0
24.4900 59.0
24.5100 65.0
24.5300 56.0
24.5500 75.0
24.5700 82.0
24.5900 62.0
24.6100 69.0
24.6300 70.0
24.6500 55.0
24.6700 49.0
24.6900 68.0
24.7100 67.0
24.7300 73.0
24.7500 57.0
24.7700 56.0
24.7900 68.0
24.8100 62.0
24.8300 68.0
24.8500 73.0
24.8700 71.0
24.8900 70.0
24.9100 52.0
24.9300 68.0
24.9500 74.0
24.9700 60.0
24.9900 68.0
25.0100 62.0
25.0300 78.0
25.0500 53.0
25.0700 68.0
25.0900 68.0
25.1100 80.0
25.1300 48.0
25.1500 67.0
25.1700 55.0
25.1900 80.0
25.2100 58.0
25.2300 78.0
25.2500 71.0
25.2700 77.0
25.2900 67.0
25.3100 72.0
25.3300 86.0
25.3500 71.0
25.3700 56.0
25.3900 62.0
25.4100 66.0
25.4300 61.0
25.4500 64.0
25.4700 64.0
25.4900 65.0
25.5100 59.0
25.5300 65.0
25.5500 77.0
25.5700 74.0
25.5900 79.0
25.6100 60.0
25.6300 74.0
25.6500 69.0
25.6700 57.0
25.6900 65.0
25.7100 75.0
25.7300 80.0
25.7500 67.0
25.7700 67.0
25.7900 62.0
25.8100 80.0
25.8300 68.0
25.8500 90.0
25.8700 62.0
25.8900 57.0
25.9100 73.0
25.9300 65.0
25.9500 75.0
25.9700 67.0
25.9900 81.0
26.0100 72.0
26.0300 56.0
26.0500 67.0
26.0700 70.0
26.0900 78.0
26.1100 74.0
26.1300 67.0
26.1500 72.0
26.1700 60.0
26.1900 74.0
26.2100 70.0
26.2300 51.0
26.2500 66.0
26.2700 68.0
26.2900 73.0
26.3100 72.0
26.3300 77.0
26.3500 69.0
26.3700 68.0
26.3900 90.0
26.4100 64.0
26.4300 69.0
26.4500 83.0
26.4700 75.0
26.4900 79.0
26.5100 69.0
26.5300 77.0
26.5500 78.0
26.5700 76.0
26.5900 64.0
26.6100 70.0
26.6300 59.0
26.6500 65.0
26.6700 82.0
26.6900 82.0
26.7100 62.0
26.7300 64.0
26.7500 82.0
26.7700 73.0
26.7900 75.0
26.8100 61.0
26.8300 69.0
26.8500 75.0
26.8700 66.0
26.8900 77.0
26.9100 73.0
26.9300 81.0
26.9500 69.0
26.9700 85.0
26.9900 92.0
27.0100 78.0
27.0300 74.0
27.0500 71.0
27.0700 90.0
27.0900 80.0
27.1100 78.0
27.1300 67.0
27.1500 67.0
27.1700 78.0
27.1900 72.0
27.2100 81.0
27.2300 63.0
27.2500 90.0
27.2700 69.0
27.2900 88.0
27.3100 85.0
27.3300 96.0
27.3500 73.0
27.3700 80.0
27.3900 81.0
27.4100 78.0
27.4300 93.0
27.4500 81.0
27.4700 78.0
27.4900 77.0
27.5100 75.0
27.5300 93.0
27.5500 90.0
27.5700 97.0
27.5900 96.0
27.6100 89.0
27.6300 87.0
27.6500 99.0
27.6700 95.0
27.6900 125.0
27.7100 138.0
27.7300 125.0
27.7500 147.0
27.7700 175.0
27.7900 169.0
27.8100 180.0
27.8300 195.0
27.8500 208.0
27.8700 204.0
27.8900 193.0
27.9100 212.0
27.9300 225.0
27.9500 178.0
27.9700 168.0
27.9900 154.0
28.0100 168.0
28.0300 143.0
28.0500 176.0
28.0700 156.0
28.0900 156.0
28.1100 149.0
28.1300 178.0
28.1500 195.0
28.1700 219.0
28.1900 276.0
28.2100 319.0
28.2300 428.0
28.2500 538.0
28.2700 694.0
28.2900 931.0
28.3100 1273.0
28.3300 1650.0
28.3500 2171.0
28.3700 2782.0
28.3900 3383.0
28.4100 4045.0
28.4300 4491.0
28.4500 5120.0
28.4700 5548.0
28.4900 5675.0
28.5100 5551.0
28.5300 5292.0
28.5500 5044.0
28.5700 4486.0
28.5900 3840.0
28.6100 3074.0
28.6300 2547.0
28.6500 2064.0
28.6700 1567.0
28.6900 1147.0
28.7100 956.0
28.7300 667.0
28.7500 530.0
28.7700 423.0
28.7900 336.0
28.8100 284.0
28.8300 232.0
28.8500 199.0
28.8700 203.0
28.8900 174.0
28.9100 189.0
28.9300 158.0
28.9500 172.0
28.9700 122.0
28.9900 135.0
29.0100 112.0
29.0300 127.0
29.0500 119.0
29.0700 120.0
29.0900 96.0
29.1100 112.0
29.1300 119.0
29.1500 110.0
29.1700 102.0
29.1900 101.0
29.2100 100.0
29.2300 112.0
29.2500 103.0
29.2700 94.0
29.2900 126.0
29.3100 104.0
29.3300 105.0
29.3500 135.0
29.3700 132.0
29.3900 119.0
29.4100 123.0
29.4300 112.0
29.4500 114.0
29.4700 116.0
29.4900 114.0
29.5100 107.0
29.5300 117.0
29.5500 129.0
29.5700 123.0
29.5900 152.0
29.6100 140.0
29.6300 171.0
29.6500 179.0
29.6700 175.0
29.6900 198.0
29.7100 205.0
29.7300 204.0
29.7500 191.0
29.7700 182.0
29.7900 190.0
29.8100 172.0
29.8300 159.0
29.8500 135.0
29.8700 128.0
29.8900 112.0
29.9100 91.0
29.9300 80.0
29.9500 98.0
29.9700 103.0
29.9900 84.0
30.0100 80.0
30.0300 92.0
30.0500 75.0
30.0700 71.0
30.0900 79.0
30.1100 77.0
30.1300 67.0
30.1500 77.0
30.1700 72.0
30.1900 95.0
30.2100 85.0
30.2300 66.0
30.2500 65.0
30.2700 77.0
30.2900 58.0
30.3100 58.0
30.3300 62.0
30.3500 92.0
30.3700 62.0
30.3900 64.0
30.4100 68.0
30.4300 62.0
30.4500 68.0
30.4700 63.0
30.4900 58.0
30.5100 68.0
30.5300 61.0
30.5500 70.0
30.5700 59.0
30.5900 63.0
30.6100 72.0
30.6300 69.0
30.6500 61.0
30.6700 66.0
30.6900 60.0
30.7100 65.0
30.7300 65.0
30.7500 68.0
30.7700 73.0
30.7900 63.0
30.8100 58.0
30.8300 56.0
30.8500 67.0
30.8700 56.0
30.8900 78.0
30.9100 56.0
30.9300 57.0
30.9500 44.0
30.9700 44.0
30.9900 83.0
31.0100 55.0
31.0300 62.0
31.0500 74.0
31.0700 73.0
31.0900 63.0
31.1100 57.0
31.1300 64.0
31.1500 51.0
31.1700 68.0
31.1900 61.0
31.2100 56.0
31.2300 59.0
31.2500 55.0
31.2700 67.0
31.2900 67.0
31.3100 61.0
31.3300 57.0
31.3500 69.0
31.3700 72.0
31.3900 62.0
31.4100 65.0
31.4300 60.0
31.4500 79.0
31.4700 70.0
31.4900 58.0
31.5100 46.0
31.5300 66.0
31.5500 56.0
31.5700 73.0
31.5900 58.0
31.6100 72.0
31.6300 82.0
31.6500 67.0
31.6700 67.0
31.6900 72.0
31.7100 60.0
31.7300 62.0
31.7500 58.0
31.7700 74.0
31.7900 66.0
31.8100 55.0
31.8300 69.0
31.8500 63.0
31.8700 55.0
31.8900 48.0
31.9100 59.0
31.9300 59.0
31.9500 63.0
31.9700 73.0
31.9900 77.0
32.0100 74.0
32.0300 70.0
32.0500 89.0
32.0700 75.0
32.0900 84.0
32.1100 81.0
32.1300 109.0
32.1500 111.0
32.1700 119.0
32.1900 142.0
32.2100 145.0
32.2300 159.0
32.2500 173.0
32.2700 176.0
32.2900 165.0
32.3100 181.0
32.3300 148.0
32.3500 166.0
32.3700 140.0
32.3900 128.0
32.4100 116.0
32.4300 127.0
32.4500 99.0
32.4700 109.0
32.4900 92.0
32.5100 92.0
32.5300 74.0
32.5500 83.0
32.5700 84.0
32.5900 85.0
32.6100 86.0
32.6300 77.0
32.6500 97.0
32.6700 93.0
32.6900 105.0
32.7100 112.0
32.7300 110.0
32.7500 119.0
32.7700 123.0
32.7900 162.0
32.8100 171.0
32.8300 216.0
32.8500 244.0
32.8700 329.0
32.8900 354.0
32.9100 411.0
32.9300 473.0
32.9500 491.0
32.9700 565.0
32.9900 578.0
33.0100 569.0
33.0300 573.0
33.0500 561.0
33.0700 538.0
33.0900 537.0
33.1100 479.0
33.1300 443.0
33.1500 420.0
33.1700 326.0
33.1900 283.0
33.2100 253.0
33.2300 209.0
33.2500 200.0
33.2700 155.0
33.2900 155.0
33.3100 142.0
33.3300 122.0
33.3500 95.0
33.3700 101.0
33.3900 86.0
33.4100 104.0
33.4300 101.0
33.4500 86.0
33.4700 75.0
33.4900 92.0
33.5100 80.0
33.5300 66.0
33.5500 76.0
33.5700 67.0
33.5900 64.0
33.6100 78.0
33.6300 84.0
33.6500 75.0
33.6700 57.0
33.6900 68.0
33.7100 85.0
33.7300 72.0
33.7500 68.0
33.7700 70.0
33.7900 63.0
33.8100 61.0
33.8300 70.0
33.8500 64.0
33.8700 70.0
33.8900 55.0
33.9100 64.0
33.9300 60.0
33.9500 63.0
33.9700 65.0
33.9900 54.0
34.0100 60.0
34.0300 65.0
34.0500 73.0
34.0700 58.0
34.0900 70.0
34.1100 62.0
34.1300 69.0
34.1500 58.0
34.1700 63.0
34.1900 53.0
34.2100 58.0
34.2300 78.0
34.2500 69.0
34.2700 51.0
34.2900 44.0
34.3100 67.0
34.3300 50.0
34.3500 66.0
34.3700 69.0
34.3900 61.0
34.4100 52.0
34.4300 47.0
34.4500 47.0
34.4700 53.0
34.4900 59.0
34.5100 67.0
34.5300 53.0
34.5500 51.0
34.5700 48.0
34.5900 57.0
34.6100 63.0
34.6300 61.0
34.6500 59.0
34.6700 69.0
34.6900 62.0
34.7100 67.0
34.7300 50.0
34.7500 63.0
34.7700 56.0
34.7900 53.0
34.8100 58.0
34.8300 62.0
34.8500 65.0
34.8700 51.0
34.8900 61.0
34.9100 68.0
34.9300 76.0
34.9500 70.0
34.9700 58.0
34.9900 64.0
35.0100 62.0
35.0300 66.0
35.0500 59.0
35.0700 71.0
35.0900 58.0
35.1100 55.0
35.1300 54.0
35.1500 61.0
35.1700 46.0
35.1900 61.0
35.2100 56.0
35.2300 71.0
35.2500 64.0
35.2700 59.0
35.2900 57.0
35.3100 50.0
35.3300 51.0
35.3500 57.0
35.3700 59.0
35.3900 52.0
35.4100 52.0
35.4300 55.0
35.4500 61.0
35.4700 53.0
35.4900 56.0
35.5100 59.0
35.5300 44.0
35.5500 64.0
35.5700 69.0
35.5900 56.0
35.6100 55.0
35.6300 56.0
35.6500 62.0
35.6700 46.0
35.6900 51.0
35.7100 51.0
35.7300 63.0
35.7500 56.0
35.7700 58.0
35.7900 52.0
35.8100 49.0
35.8300 75.0
35.8500 51.0
35.8700 49.0
35.8900 67.0
35.9100 67.0
35.9300 63.0
35.9500 56.0
35.9700 62.0
35.9900 56.0
36.0100 60.0
36.0300 63.0
36.0500 60.0
36.0700 44.0
36.0900 68.0
36.1100 56.0
36.1300 51.0
36.1500 69.0
36.1700 49.0
36.1900 63.0
36.2100 53.0
36.2300 62.0
36.2500 65.0
36.2700 48.0
36.2900 56.0
36.3100 49.0
36.3300 53.0
36.3500 51.0
36.3700 64.0
36.3900 54.0
36.4100 67.0
36.4300 50.0
36.4500 53.0
36.4700 49.0
36.4900 51.0
36.5100 45.0
36.5300 45.0
36.5500 47.0
36.5700 55.0
36.5900 58.0
36.6100 47.0
36.6300 56.0
36.6500 59.0
36.6700 46.0
36.6900 54.0
36.7100 62.0
36.7300 55.0
36.7500 53.0
36.7700 67.0
36.7900 63.0
36.8100 58.0
36.8300 74.0
36.8500 70.0
36.8700 63.0
36.8900 96.0
36.9100 79.0
36.9300 111.0
36.9500 122.0
36.9700 121.0
36.9900 118.0
37.0100 120.0
37.0300 116.0
37.0500 140.0
37.0700 125.0
37.0900 108.0
37.1100 110.0
37.1300 103.0
37.1500 113.0
37.1700 97.0
37.1900 97.0
37.2100 84.0
37.2300 88.0
37.2500 75.0
37.2700 73.0
37.2900 79.0
37.3100 80.0
37.3300 72.0
37.3500 75.0
37.3700 73.0
37.3900 49.0
37.4100 71.0
37.4300 62.0
37.4500 65.0
37.4700 59.0
37.4900 64.0
37.5100 51.0
37.5300 56.0
37.5500 69.0
37.5700 58.0
37.5900 49.0
37.6100 61.0
37.6300 73.0
37.6500 69.0
37.6700 76.0
37.6900 71.0
37.7100 95.0
37.7300 76.0
37.7500 78.0
37.7700 88.0
37.7900 87.0
37.8100 90.0
37.8300 136.0
37.8500 140.0
37.8700 138.0
37.8900 181.0
37.9100 197.0
37.9300 198.0
37.9500 177.0
37.9700 216.0
37.9900 178.0
38.0100 171.0
38.0300 173.0
38.0500 158.0
38.0700 155.0
38.0900 151.0
38.1100 125.0
38.1300 102.0
38.1500 106.0
38.1700 84.0
38.1900 64.0
38.2100 64.0
38.2300 80.0
38.2500 61.0
38.2700 65.0
38.2900 73.0
38.3100 62.0
38.3300 50.0
38.3500 52.0
38.3700 60.0
38.3900 70.0
38.4100 51.0
38.4300 55.0
38.4500 45.0
38.4700 45.0
38.4900 60.0
38.5100 60.0
38.5300 60.0
38.5500 55.0
38.5700 53.0
38.5900 60.0
38.6100 51.0
38.6300 42.0
38.6500 62.0
38.6700 39.0
38.6900 51.0
38.7100 50.0
38.7300 45.0
38.7500 61.0
38.7700 51.0
38.7900 45.0
38.8100 42.0
38.8300 59.0
38.8500 47.0
38.8700 53.0
38.8900 50.0
38.9100 59.0
38.9300 51.0
38.9500 47.0
38.9700 45.0
38.9900 38.0
39.0100 44.0
39.0300 54.0
39.0500 43.0
39.0700 57.0
39.0900 50.0
39.1100 48.0
39.1300 47.0
39.1500 55.0
39.1700 43.0
39.1900 62.0
39.2100 48.0
39.2300 36.0
39.2500 50.0
39.2700 45.0
39.2900 44.0
39.3100 44.0
39.3300 44.0
39.3500 55.0
39.3700 59.0
39.3900 47.0
39.4100 54.0
39.4300 55.0
39.4500 53.0
39.4700 47.0
39.4900 38.0
39.5100 62.0
39.5300 30.0
39.5500 33.0
39.5700 47.0
39.5900 45.0
39.6100 60.0
39.6300 57.0
39.6500 44.0
39.6700 48.0
39.6900 54.0
39.7100 48.0
39.7300 43.0
39.7500 35.0
39.7700 46.0
39.7900 64.0
39.8100 39.0
39.8300 41.0
39.8500 49.0
39.8700 52.0
39.8900 45.0
39.9100 45.0
39.9300 47.0
39.9500 52.0
39.9700 38.0
39.9900 50.0
40.0100 56.0
40.0300 56.0
40.0500 46.0
40.0700 59.0
40.0900 41.0
40.1100 50.0
40.1300 49.0
40.1500 48.0
40.1700 51.0
40.1900 46.0
40.2100 63.0
40.2300 61.0
40.2500 53.0
40.2700 72.0
40.2900 47.0
40.3100 81.0
40.3300 70.0
40.3500 73.0
40.3700 64.0
40.3900 67.0
40.4100 69.0
40.4300 67.0
40.4500 74.0
40.4700 82.0
40.4900 80.0
40.5100 106.0
40.5300 68.0
40.5500 92.0
40.5700 101.0
40.5900 80.0
40.6100 95.0
40.6300 84.0
40.6500 97.0
40.6700 91.0
40.6900 105.0
40.7100 112.0
40.7300 121.0
40.7500 101.0
40.7700 110.0
40.7900 84.0
40.8100 93.0
40.8300 97.0
40.8500 94.0
40.8700 96.0
40.8900 103.0
40.9100 81.0
40.9300 78.0
40.9500 77.0
40.9700 52.0
40.9900 64.0
41.0100 57.0
41.0300 43.0
41.0500 54.0
41.0700 59.0
41.0900 53.0
41.1100 55.0
41.1300 51.0
41.1500 46.0
41.1700 57.0
41.1900 56.0
41.2100 50.0
41.2300 49.0
41.2500 63.0
41.2700 39.0
41.2900 37.0
41.3100 48.0
41.3300 57.0
41.3500 46.0
41.3700 59.0
41.3900 41.0
41.4100 47.0
41.4300 50.0
41.4500 53.0
41.4700 53.0
41.4900 68.0
41.5100 60.0
41.5300 87.0
41.5500 83.0
41.5700 66.0
41.5900 66.0
41.6100 71.0
41.6300 68.0
41.6500 52.0
41.6700 52.0
41.6900 48.0
41.7100 60.0
41.7300 43.0
41.7500 52.0
41.7700 58.0
41.7900 39.0
41.8100 63.0
41.8300 38.0
41.8500 35.0
41.8700 60.0
41.8900 48.0
41.9100 40.0
41.9300 54.0
41.9500 44.0
41.9700 56.0
41.9900 53.0
42.0100 44.0
42.0300 42.0
42.0500 41.0
42.0700 42.0
42.0900 47.0
42.1100 53.0
42.1300 48.0
42.1500 52.0
42.1700 46.0
42.1900 36.0
42.2100 42.0
42.2300 40.0
42.2500 42.0
42.2700 40.0
42.2900 46.0
42.3100 36.0
42.3300 47.0
42.3500 48.0
42.3700 46.0
42.3900 35.0
42.4100 41.0
42.4300 36.0
42.4500 36.0
42.4700 32.0
42.4900 46.0
42.5100 39.0
42.5300 38.0
42.5500 44.0
42.5700 41.0
42.5900 47.0
42.6100 35.0
42.6300 37.0
42.6500 43.0
42.6700 42.0
42.6900 36.0
42.7100 37.0
42.7300 37.0
42.7500 47.0
42.7700 38.0
42.7900 48.0
42.8100 46.0
42.8300 38.0
42.8500 46.0
42.8700 46.0
42.8900 39.0
42.9100 44.0
42.9300 52.0
42.9500 48.0
42.9700 42.0
42.9900 48.0
43.0100 41.0
43.0300 35.0
43.0500 53.0
43.0700 43.0
43.0900 37.0
43.1100 46.0
43.1300 35.0
43.1500 31.0
43.1700 43.0
43.1900 45.0
43.2100 51.0
43.2300 41.0
43.2500 54.0
43.2700 48.0
43.2900 54.0
43.3100 39.0
43.3300 33.0
43.3500 35.0
43.3700 45.0
43.3900 49.0
43.4100 34.0
43.4300 53.0
43.4500 42.0
43.4700 33.0
43.4900 42.0
43.5100 51.0
43.5300 47.0
43.5500 52.0
43.5700 48.0
43.5900 37.0
43.6100 47.0
43.6300 54.0
43.6500 40.0
43.6700 38.0
43.6900 52.0
43.7100 48.0
43.7300 44.0
43.7500 48.0
43.7700 58.0
43.7900 42.0
43.8100 43.0
43.8300 38.0
43.8500 42.0
43.8700 40.0
43.8900 47.0
43.9100 37.0
43.9300 35.0
43.9500 47.0
43.9700 37.0
43.9900 42.0
44.0100 36.0
44.0300 41.0
44.0500 46.0
44.0700 34.0
44.0900 39.0
44.1100 39.0
44.1300 56.0
44.1500 42.0
44.1700 34.0
44.1900 44.0
44.2100 50.0
44.2300 47.0
44.2500 43.0
44.2700 38.0
44.2900 43.0
44.3100 42.0
44.3300 41.0
44.3500 51.0
44.3700 44.0
44.3900 52.0
44.4100 49.0
44.4300 48.0
44.4500 48.0
44.4700 41.0
44.4900 47.0
44.5100 51.0
44.5300 48.0
44.5500 49.0
44.5700 44.0
44.5900 42.0
44.6100 30.0
44.6300 51.0
44.6500 65.0
44.6700 66.0
44.6900 43.0
44.7100 56.0
44.7300 71.0
44.7500 55.0
44.7700 66.0
44.7900 73.0
44.8100 85.0
44.8300 100.0
44.8500 93.0
44.8700 120.0
44.8900 104.0
44.9100 118.0
44.9300 135.0
44.9500 145.0
44.9700 134.0
44.9900 142.0
45.0100 133.0
45.0300 156.0
45.0500 148.0
45.0700 138.0
45.0900 114.0
45.1100 116.0
45.1300 107.0
45.1500 88.0
45.1700 94.0
45.1900 78.0
45.2100 91.0
45.2300 59.0
45.2500 79.0
45.2700 70.0
45.2900 56.0
45.3100 59.0
45.3300 63.0
45.3500 63.0
45.3700 59.0
45.3900 57.0
45.4100 45.0
45.4300 55.0
45.4500 63.0
45.4700 46.0
45.4900 41.0
45.5100 45.0
45.5300 49.0
45.5500 44.0
45.5700 46.0
45.5900 56.0
45.6100 52.0
45.6300 64.0
45.6500 48.0
45.6700 43.0
45.6900 58.0
45.7100 49.0
45.7300 47.0
45.7500 55.0
45.7700 45.0
45.7900 63.0
45.8100 56.0
45.8300 55.0
45.8500 58.0
45.8700 55.0
45.8900 40.0
45.9100 36.0
45.9300 58.0
45.9500 61.0
45.9700 74.0
45.9900 62.0
46.0100 51.0
46.0300 67.0
46.0500 92.0
46.0700 114.0
46.0900 111.0
46.1100 134.0
46.1300 150.0
46.1500 147.0
46.1700 191.0
46.1900 213.0
46.2100 286.0
46.2300 252.0
46.2500 310.0
46.2700 314.0
46.2900 362.0
46.3100 323.0
46.3300 322.0
46.3500 312.0
46.3700 280.0
46.3900 283.0
46.4100 247.0
46.4300 225.0
46.4500 200.0
46.4700 204.0
46.4900 170.0
46.5100 142.0
46.5300 123.0
46.5500 126.0
46.5700 114.0
46.5900 105.0
46.6100 91.0
46.6300 71.0
46.6500 78.0
46.6700 84.0
46.6900 79.0
46.7100 76.0
46.7300 77.0
46.7500 93.0
46.7700 80.0
46.7900 80.0
46.8100 82.0
46.8300 76.0
46.8500 73.0
46.8700 65.0
46.8900 91.0
46.9100 86.0
46.9300 87.0
46.9500 95.0
46.9700 88.0
46.9900 105.0
47.0100 117.0
47.0300 120.0
47.0500 138.0
47.0700 140.0
47.0900 201.0
47.1100 236.0
47.1300 287.0
47.1500 404.0
47.1700 490.0
47.1900 704.0
47.2100 835.0
47.2300 1040.0
47.2500 1300.0
47.2700 1511.0
47.2900 1767.0
47.3100 1939.0
47.3300 2099.0
47.3500 2207.0
47.3700 2380.0
47.3900 2313.0
47.4100 2298.0
47.4300 2148.0
47.4500 2051.0
47.4700 1956.0
47.4900 1778.0
47.5100 1598.0
47.5300 1361.0
47.5500 1194.0
47.5700 1024.0
47.5900 849.0
47.6100 732.0
47.6300 552.0
47.6500 484.0
47.6700 366.0
47.6900 306.0
47.7100 262.0
47.7300 255.0
47.7500 171.0
47.7700 176.0
47.7900 159.0
47.8100 127.0
47.8300 121.0
47.8500 114.0
47.8700 116.0
47.8900 111.0
47.9100 97.0
47.9300 87.0
47.9500 84.0
47.9700 82.0
47.9900 79.0
48.0100 92.0
48.0300 75.0
48.0500 75.0
48.0700 76.0
48.0900 67.0
48.1100 75.0
48.1300 69.0
48.1500 64.0
48.1700 72.0
48.1900 70.0
48.2100 50.0
48.2300 56.0
48.2500 63.0
48.2700 62.0
48.2900 61.0
48.3100 59.0
48.3300 51.0
48.3500 64.0
48.3700 54.0
48.3900 57.0
48.4100 66.0
48.4300 58.0
48.4500 54.0
48.4700 53.0
48.4900 53.0
48.5100 55.0
48.5300 46.0
48.5500 51.0
48.5700 58.0
48.5900 54.0
48.6100 53.0
48.6300 65.0
48.6500 42.0
48.6700 48.0
48.6900 59.0
48.7100 47.0
48.7300 49.0
48.7500 36.0
48.7700 48.0
48.7900 34.0
48.8100 46.0
48.8300 56.0
48.8500 40.0
48.8700 55.0
48.8900 39.0
48.9100 46.0
48.9300 39.0
48.9500 54.0
48.9700 44.0
48.9900 42.0
49.0100 46.0
49.0300 40.0
49.0500 40.0
49.0700 46.0
49.0900 47.0
49.1100 43.0
49.1300 53.0
49.1500 44.0
49.1700 36.0
49.1900 54.0
49.2100 45.0
49.2300 36.0
49.2500 42.0
49.2700 50.0
49.2900 41.0
49.3100 41.0
49.3300 44.0
49.3500 34.0
49.3700 54.0
49.3900 39.0
49.4100 56.0
49.4300 42.0
49.4500 50.0
49.4700 39.0
49.4900 47.0
49.5100 39.0
49.5300 54.0
49.5500 50.0
49.5700 44.0
49.5900 43.0
49.6100 54.0
49.6300 50.0
49.6500 41.0
49.6700 53.0
49.6900 44.0
49.7100 52.0
49.7300 47.0
49.7500 47.0
49.7700 45.0
49.7900 45.0
49.8100 51.0
49.8300 40.0
49.8500 41.0
49.8700 40.0
49.8900 28.0
49.9100 42.0
49.9300 55.0
49.9500 43.0
49.9700 48.0
49.9900 42.0
50.0100 41.0
50.0300 47.0
50.0500 37.0
50.0700 57.0
50.0900 44.0
50.1100 45.0
50.1300 50.0
50.1500 47.0
50.1700 44.0
50.1900 56.0
50.2100 42.0
50.2300 41.0
50.2500 50.0
50.2700 52.0
50.2900 54.0
50.3100 52.0
50.3300 48.0
50.3500 60.0
50.3700 55.0
50.3900 69.0
50.4100 67.0
50.4300 66.0
50.4500 69.0
50.4700 57.0
50.4900 63.0
50.5100 48.0
50.5300 63.0
50.5500 64.0
50.5700 50.0
50.5900 53.0
50.6100 63.0
50.6300 51.0
50.6500 59.0
50.6700 59.0
50.6900 56.0
50.7100 50.0
50.7300 49.0
50.7500 47.0
50.7700 47.0
50.7900 53.0
50.8100 41.0
50.8300 45.0
50.8500 48.0
50.8700 46.0
50.8900 53.0
50.9100 42.0
50.9300 50.0
50.9500 52.0
50.9700 54.0
50.9900 70.0
51.0100 56.0
51.0300 57.0
51.0500 60.0
51.0700 72.0
51.0900 64.0
51.1100 61.0
51.1300 58.0
51.1500 65.0
51.1700 70.0
51.1900 75.0
51.2100 69.0
51.2300 63.0
51.2500 60.0
51.2700 58.0
51.2900 57.0
51.3100 72.0
51.3300 58.0
51.3500 62.0
51.3700 50.0
51.3900 51.0
51.4100 60.0
51.4300 41.0
51.4500 46.0
51.4700 53.0
51.4900 39.0
51.5100 55.0
51.5300 55.0
51.5500 40.0
51.5700 42.0
51.5900 40.0
51.6100 43.0
51.6300 41.0
51.6500 41.0
51.6700 54.0
51.6900 46.0
51.7100 43.0
51.7300 40.0
51.7500 38.0
51.7700 41.0
51.7900 50.0
51.8100 60.0
51.8300 50.0
51.8500 40.0
51.8700 45.0
51.8900 51.0
51.9100 45.0
51.9300 39.0
51.9500 49.0
51.9700 54.0
51.9900 48.0
52.0100 48.0
52.0300 45.0
52.0500 31.0
52.0700 43.0
52.0900 45.0
52.1100 29.0
52.1300 46.0
52.1500 49.0
52.1700 50.0
52.1900 35.0
52.2100 40.0
52.2300 50.0
52.2500 32.0
52.2700 48.0
52.2900 32.0
52.3100 38.0
52.3300 45.0
52.3500 33.0
52.3700 41.0
52.3900 41.0
52.4100 36.0
52.4300 45.0
52.4500 34.0
52.4700 36.0
52.4900 43.0
52.5100 33.0
52.5300 33.0
52.5500 31.0
52.5700 40.0
52.5900 31.0
52.6100 42.0
52.6300 41.0
52.6500 47.0
52.6700 34.0
52.6900 35.0
52.7100 37.0
52.7300 32.0
52.7500 46.0
52.7700 42.0
52.7900 32.0
52.8100 40.0
52.8300 35.0
52.8500 42.0
52.8700 25.0
52.8900 40.0
52.9100 46.0
52.9300 39.0
52.9500 42.0
52.9700 37.0
52.9900 51.0
53.0100 43.0
53.0300 49.0
53.0500 34.0
53.0700 37.0
53.0900 47.0
53.1100 39.0
53.1300 41.0
53.1500 47.0
53.1700 43.0
53.1900 32.0
53.2100 50.0
53.2300 45.0
53.2500 48.0
53.2700 43.0
53.2900 55.0
53.3100 48.0
53.3300 53.0
53.3500 46.0
53.3700 53.0
53.3900 52.0
53.4100 55.0
53.4300 67.0
53.4500 61.0
53.4700 48.0
53.4900 41.0
53.5100 40.0
53.5300 47.0
53.5500 44.0
53.5700 44.0
53.5900 32.0
53.6100 39.0
53.6300 31.0
53.6500 48.0
53.6700 34.0
53.6900 38.0
53.7100 54.0
53.7300 28.0
53.7500 44.0
53.7700 31.0
53.7900 38.0
53.8100 47.0
53.8300 34.0
53.8500 34.0
53.8700 41.0
53.8900 36.0
53.9100 39.0
53.9300 41.0
53.9500 31.0
53.9700 36.0
53.9900 34.0
54.0100 41.0
54.0300 48.0
54.0500 40.0
54.0700 38.0
54.0900 49.0
54.1100 40.0
54.1300 26.0
54.1500 43.0
54.1700 36.0
54.1900 43.0
54.2100 41.0
54.2300 52.0
54.2500 49.0
54.2700 38.0
54.2900 32.0
54.3100 52.0
54.3300 30.0
54.3500 41.0
54.3700 35.0
54.3900 28.0
54.4100 54.0
54.4300 31.0
54.4500 46.0
54.4700 53.0
54.4900 34.0
54.5100 30.0
54.5300 41.0
54.5500 35.0
54.5700 41.0
54.5900 48.0
54.6100 34.0
54.6300 47.0
54.6500 50.0
54.6700 35.0
54.6900 66.0
54.7100 59.0
54.7300 59.0
54.7500 61.0
54.7700 54.0
54.7900 60.0
54.8100 74.0
54.8300 71.0
54.8500 75.0
54.8700 86.0
54.8900 85.0
54.9100 77.0
54.9300 75.0
54.9500 84.0
54.9700 84.0
54.9900 61.0
55.0100 77.0
55.0300 68.0
55.0500 71.0
55.0700 65.0
55.0900 87.0
55.1100 42.0
55.1300 50.0
55.1500 50.0
55.1700 49.0
55.1900 49.0
55.2100 67.0
55.2300 45.0
55.2500 63.0
55.2700 47.0
55.2900 49.0
55.3100 38.0
55.3300 38.0
55.3500 49.0
55.3700 44.0
55.3900 31.0
55.4100 43.0
55.4300 40.0
55.4500 39.0
55.4700 50.0
55.4900 47.0
55.5100 43.0
55.5300 57.0
55.5500 40.0
55.5700 57.0
55.5900 53.0
55.6100 49.0
55.6300 48.0
55.6500 57.0
55.6700 50.0
55.6900 62.0
55.7100 74.0
55.7300 61.0
55.7500 60.0
55.7700 76.0
55.7900 74.0
55.8100 87.0
55.8300 108.0
55.8500 82.0
55.8700 107.0
55.8900 114.0
55.9100 126.0
55.9300 159.0
55.9500 234.0
55.9700 234.0
55.9900 349.0
56.0100 408.0
56.0300 485.0
56.0500 626.0
56.0700 779.0
56.0900 848.0
56.1100 966.0
56.1300 1025.0
56.1500 1038.0
56.1700 1188.0
56.1900 1188.0
56.2100 1183.0
56.2300 1188.0
56.2500 1167.0
56.2700 1154.0
56.2900 1107.0
56.3100 1118.0
56.3300 968.0
56.3500 923.0
56.3700 796.0
56.3900 740.0
56.4100 639.0
56.4300 558.0
56.4500 503.0
56.4700 449.0
56.4900 380.0
56.5100 317.0
56.5300 279.0
56.5500 233.0
56.5700 191.0
56.5900 165.0
56.6100 144.0
56.6300 123.0
56.6500 102.0
56.6700 120.0
56.6900 92.0
56.7100 97.0
56.7300 98.0
56.7500 85.0
56.7700 73.0
56.7900 92.0
56.8100 88.0
56.8300 86.0
56.8500 96.0
56.8700 97.0
56.8900 84.0
56.9100 93.0
56.9300 97.0
56.9500 83.0
56.9700 81.0
56.9900 73.0
57.0100 83.0
57.0300 75.0
57.0500 66.0
57.0700 87.0
57.0900 52.0
57.1100 61.0
57.1300 53.0
57.1500 41.0
57.1700 49.0
57.1900 60.0
57.2100 48.0
57.2300 31.0
57.2500 39.0
57.2700 45.0
57.2900 46.0
57.3100 41.0
57.3300 50.0
57.3500 33.0
57.3700 31.0
57.3900 56.0
57.4100 33.0
57.4300 48.0
57.4500 33.0
57.4700 44.0
57.4900 38.0
57.5100 43.0
57.5300 50.0
57.5500 42.0
57.5700 43.0
57.5900 36.0
57.6100 49.0
57.6300 30.0
57.6500 36.0
57.6700 38.0
57.6900 33.0
57.7100 34.0
57.7300 29.0
57.7500 44.0
57.7700 32.0
57.7900 45.0
57.8100 35.0
57.8300 48.0
57.8500 36.0
57.8700 40.0
57.8900 43.0
57.9100 34.0
57.9300 36.0
57.9500 31.0
57.9700 35.0
57.9900 30.0
58.0100 31.0
58.0300 28.0
58.0500 40.0
58.0700 37.0
58.0900 30.0
58.1100 34.0
58.1300 37.0
58.1500 41.0
58.1700 29.0
58.1900 36.0
58.2100 39.0
58.2300 42.0
58.2500 33.0
58.2700 35.0
58.2900 33.0
58.3100 33.0
58.3300 29.0
58.3500 26.0
58.3700 26.0
58.3900 37.0
58.4100 33.0
58.4300 36.0
58.4500 37.0
58.4700 37.0
58.4900 42.0
58.5100 48.0
58.5300 34.0
58.5500 36.0
58.5700 33.0
58.5900 38.0
58.6100 36.0
58.6300 36.0
58.6500 50.0
58.6700 49.0
58.6900 43.0
58.7100 47.0
58.7300 46.0
58.7500 65.0
58.7700 59.0
58.7900 84.0
58.8100 86.0
58.8300 98.0
58.8500 111.0
58.8700 137.0
58.8900 141.0
58.9100 114.0
58.9300 139.0
58.9500 128.0
58.9700 143.0
58.9900 114.0
59.0100 126.0
59.0300 117.0
59.0500 91.0
59.0700 106.0
59.0900 113.0
59.1100 79.0
59.1300 85.0
59.1500 71.0
59.1700 69.0
59.1900 53.0
59.2100 60.0
59.2300 46.0
59.2500 41.0
59.2700 57.0
59.2900 43.0
59.3100 46.0
59.3300 29.0
59.3500 42.0
59.3700 31.0
59.3900 44.0
59.4100 35.0
59.4300 35.0
59.4500 36.0
59.4700 37.0
59.4900 30.0
59.5100 35.0
59.5300 36.0
59.5500 47.0
59.5700 33.0
59.5900 34.0
59.6100 34.0
59.6300 43.0
59.6500 22.0
59.6700 27.0
59.6900 30.0
59.7100 30.0
59.7300 31.0
59.7500 41.0
59.7700 23.0
59.7900 31.0
59.8100 30.0
59.8300 29.0
59.8500 28.0
59.8700 40.0
59.8900 28.0
59.9100 31.0
59.9300 53.0
59.9500 37.0
59.9700 27.0
59.9900 22.0
