10.0100 165.0
10.0300 164.0
10.0500 146.0
10.0700 187.0
10.0900 190.0
10.1100 174.0
10.1300 162.0
10.1500 166.0
10.1700 174.0
10.1900 160.0
10.2100 192.0
10.2300 183.0
10.2500 178.0
10.2700 163.0
10.2900 172.0
10.3100 166.0
10.3300 164.0
10.3500 170.0
10.3700 165.0
10.3900 177.0
10.4100 169.0
10.4300 171.0
10.4500 176.0
10.4700 154.0
10.4900 159.0
10.5100 189.0
10.5300 161.0
10.5500 188.0
10.5700 180.0
10.5900 152.0
10.6100 148.0
10.6300 184.0
10.6500 176.0
10.6700 149.0
10.6900 155.0
10.7100 154.0
10.7300 175.0
10.7500 181.0
10.7700 148.0
10.7900 144.0
10.8100 159.0
10.8300 163.0
10.8500 161.0
10.8700 168.0
10.8900 171.0
10.9100 151.0
10.9300 164.0
10.9500 161.0
10.9700 158.0
10.9900 169.0
11.0100 152.0
11.0300 160.0
11.0500 177.0
11.0700 165.0
11.0900 154.0
11.1100 150.0
11.1300 165.0
11.1500 157.0
11.1700 144.0
11.1900 164.0
11.2100 152.0
11.2300 160.0
11.2500 163.0
11.2700 153.0
11.2900 139.0
11.3100 138.0
11.3300 154.0
11.3500 168.0
11.3700 178.0
11.3900 160.0
11.4100 169.0
11.4300 150.0
11.4500 157.0
11.4700 144.0
11.4900 151.0
11.5100 143.0
11.5300 140.0
11.5500 156.0
11.5700 146.0
11.5900 136.0
11.6100 133.0
11.6300 128.0
11.6500 159.0
11.6700 136.0
11.6900 150.0
11.7100 143.0
11.7300 163.0
11.7500 167.0
11.7700 135.0
11.7900 133.0
11.8100 160.0
11.8300 152.0
11.8500 143.0
11.8700 136.0
11.8900 132.0
11.9100 147.0
11.9300 137.0
11.9500 152.0
11.9700 148.0
11.9900 134.0
12.0100 134.0
12.0300 151.0
12.0500 155.0
12.0700 122.0
12.0900 155.0
12.1100 144.0
12.1300 144.0
12.1500 146.0
12.1700 158.0
12.1900 108.0
12.2100 151.0
12.2300 137.0
12.2500 119.0
12.2700 120.0
12.2900 135.0
12.3100 133.0
12.3300 137.0
12.3500 131.0
12.3700 128.0
12.3900 119.0
12.4100 151.0
12.4300 124.0
12.4500 132.0
12.4700 140.0
12.4900 133.0
12.5100 151.0
12.5300 146.0
12.5500 123.0
12.5700 137.0
12.5900 119.0
12.6100 128.0
12.6300 133.0
12.6500 165.0
12.6700 150.0
12.6900 106.0
12.7100 124.0
12.7300 142.0
12.7500 116.0
12.7700 129.0
12.7900 141.0
12.8100 142.0
12.8300 109.0
12.8500 120.0
12.8700 131.0
12.8900 132.0
12.9100 126.0
12.9300 141.0
12.9500 114.0
12.9700 128.0
12.9900 116.0
13.0100 131.0
13.0300 125.0
13.0500 119.0
13.0700 133.0
13.0900 125.0
13.1100 114.0
13.1300 135.0
13.1500 134.0
13.1700 126.0
13.1900 124.0
13.2100 105.0
13.2300 98.0
13.2500 137.0
13.2700 129.0
13.2900 109.0
13.3100 118.0
13.3300 113.0
13.3500 118.0
13.3700 140.0
13.3900 123.0
13.4100 100.0
13.4300 112.0
13.4500 115.0
13.4700 127.0
13.4900 132.0
13.5100 130.0
13.5300 116.0
13.5500 127.0
13.5700 132.0
13.5900 119.0
13.6100 115.0
13.6300 132.0
13.6500 120.0
13.6700 111.0
13.6900 133.0
13.7100 114.0
13.7300 110.0
13.7500 128.0
13.7700 107.0
13.7900 124.0
13.8100 129.0
13.8300 121.0
13.8500 108.0
13.8700 114.0
13.8900 112.0
13.9100 106.0
13.9300 120.0
13.9500 108.0
13.9700 107.0
13.9900 115.0
14.0100 115.0
14.0300 114.0
14.0500 104.0
14.0700 103.0
14.0900 113.0
14.1100 104.0
14.1300 99.0
14.1500 117.0
14.1700 122.0
14.1900 111.0
14.2100 121.0
14.2300 121.0
14.2500 123.0
14.2700 111.0
14.2900 130.0
14.3100 130.0
14.3300 109.0
14.3500 129.0
14.3700 105.0
14.3900 107.0
14.4100 93.0
14.4300 105.0
14.4500 128.0
14.4700 100.0
14.4900 102.0
14.5100 113.0
14.5300 104.0
14.5500 108.0
14.5700 107.0
14.5900 84.0
14.6100 107.0
14.6300 95.0
14.6500 80.0
14.6700 100.0
14.6900 105.0
14.7100 117.0
14.7300 108.0
14.7500 104.0
14.7700 91.0
14.7900 86.0
14.8100 117.0
14.8300 110.0
14.8500 107.0
14.8700 103.0
14.8900 104.0
14.9100 97.0
14.9300 110.0
14.9500 94.0
14.9700 115.0
14.9900 96.0
15.0100 87.0
15.0300 97.0
15.0500 90.0
15.0700 107.0
15.0900 122.0
15.1100 101.0
15.1300 96.0
15.1500 117.0
15.1700 96.0
15.1900 106.0
15.2100 105.0
15.2300 111.0
15.2500 79.0
15.2700 116.0
15.2900 90.0
15.3100 103.0
15.3300 95.0
15.3500 103.0
15.3700 86.0
15.3900 102.0
15.4100 105.0
15.4300 102.0
15.4500 94.0
15.4700 90.0
15.4900 116.0
15.5100 93.0
15.5300 95.0
15.5500 110.0
15.5700 106.0
15.5900 106.0
15.6100 109.0
15.6300 96.0
15.6500 87.0
15.6700 104.0
15.6900 103.0
15.7100 85.0
15.7300 99.0
15.7500 119.0
15.7700 112.0
15.7900 93.0
15.8100 106.0
15.8300 93.0
15.8500 95.0
15.8700 83.0
15.8900 103.0
15.9100 97.0
15.9300 96.0
15.9500 112.0
15.9700 96.0
15.9900 88.0
16.0100 98.0
16.0300 102.0
16.0500 102.0
16.0700 93.0
16.0900 109.0
16.1100 84.0
16.1300 97.0
16.1500 109.0
16.1700 98.0
16.1900 84.0
16.2100 89.0
16.2300 98.0
16.2500 102.0
16.2700 95.0
16.2900 85.0
16.3100 82.0
16.3300 113.0
16.3500 93.0
16.3700 90.0
16.3900 93.0
16.4100 97.0
16.4300 85.0
16.4500 102.0
16.4700 97.0
16.4900 97.0
16.5100 73.0
16.5300 86.0
16.5500 80.0
16.5700 90.0
16.5900 110.0
16.6100 88.0
16.6300 97.0
16.6500 90.0
16.6700 92.0
16.6900 94.0
16.7100 98.0
16.7300 79.0
16.7500 83.0
16.7700 75.0
16.7900 91.0
16.8100 68.0
16.8300 96.0
16.8500 97.0
16.8700 95.0
16.8900 71.0
16.9100 66.0
16.9300 89.0
16.9500 83.0
16.9700 96.0
16.9900 85.0
17.0100 97.0
17.0300 93.0
17.0500 70.0
17.0700 95.0
17.0900 92.0
17.1100 84.0
17.1300 84.0
17.1500 99.0
17.1700 89.0
17.1900 87.0
17.2100 67.0
17.2300 97.0
17.2500 82.0
17.2700 89.0
17.2900 77.0
17.3100 84.0
17.3300 77.0
17.3500 94.0
17.3700 87.0
17.3900 95.0
17.4100 78.0
17.4300 68.0
17.4500 94.0
17.4700 89.0
17.4900 77.0
17.5100 90.0
17.5300 82.0
17.5500 90.0
17.5700 89.0
17.5900 83.0
17.6100 83.0
17.6300 74.0
17.6500 86.0
17.6700 76.0
17.6900 91.0
17.7100 92.0
17.7300 72.0
17.7500 92.0
17.7700 69.0
17.7900 89.0
17.8100 92.0
17.8300 67.0
17.8500 72.0
17.8700 68.0
17.8900 76.0
17.9100 62.0
17.9300 62.0
17.9500 92.0
17.9700 86.0
17.9900 74.0
18.0100 102.0
18.0300 81.0
18.0500 105.0
18.0700 82.0
18.0900 86.0
18.1100 78.0
18.1300 76.0
18.1500 73.0
18.1700 81.0
18.1900 79.0
18.2100 95.0
18.2300 89.0
18.2500 82.0
18.2700 80.0
18.2900 80.0
18.3100 68.0
18.3300 82.0
18.3500 86.0
18.3700 77.0
18.3900 77.0
18.4100 66.0
18.4300 83.0
18.4500 72.0
18.4700 97.0
18.4900 81.0
18.5100 79.0
18.5300 85.0
18.5500 63.0
18.5700 92.0
18.5900 65.0
18.6100 78.0
18.6300 65.0
18.6500 75.0
18.6700 65.0
18.6900 83.0
18.7100 88.0
18.7300 66.0
18.7500 75.0
18.7700 64.0
18.7900 78.0
18.8100 93.0
18.8300 83.0
18.8500 58.0
18.8700 62.0
18.8900 103.0
18.9100 73.0
18.9300 73.0
18.9500 82.0
18.9700 65.0
18.9900 79.0
19.0100 84.0
19.0300 62.0
19.0500 77.0
19.0700 74.0
19.0900 65.0
19.1100 66.0
19.1300 72.0
19.1500 67.0
19.1700 81.0
19.1900 77.0
19.2100 59.0
19.2300 78.0
19.2500 83.0
19.2700 72.0
19.2900 74.0
19.3100 64.0
19.3300 80.0
19.3500 59.0
19.3700 83.0
19.3900 73.0
19.4100 65.0
19.4300 82.0
19.4500 73.0
19.4700 65.0
19.4900 76.0
19.5100 81.0
19.5300 74.0
19.5500 99.0
19.5700 78.0
19.5900 77.0
19.6100 72.0
19.6300 85.0
19.6500 85.0
19.6700 78.0
19.6900 75.0
19.7100 61.0
19.7300 65.0
19.7500 73.0
19.7700 61.0
19.7900 87.0
19.8100 70.0
19.8300 64.0
19.8500 88.0
19.8700 68.0
19.8900 63.0
19.9100 65.0
19.9300 81.0
19.9500 73.0
19.9700 69.0
19.9900 73.0
20.0100 70.0
20.0300 61.0
20.0500 81.0
20.0700 66.0
20.0900 59.0
20.1100 54.0
20.1300 77.0
20.1500 80.0
20.1700 80.0
20.1900 69.0
20.2100 70.0
20.2300 72.0
20.2500 73.0
20.2700 78.0
20.2900 77.0
20.3100 55.0
20.3300 68.0
20.3500 81.0
20.3700 70.0
20.3900 79.0
20.4100 76.0
20.4300 60.0
20.4500 55.0
20.4700 73.0
20.4900 60.0
20.5100 76.0
20.5300 82.0
20.5500 60.0
20.5700 62.0
20.5900 72.0
20.6100 78.0
20.6300 73.0
20.6500 83.0
20.6700 75.0
20.6900 70.0
20.7100 66.0
20.7300 68.0
20.7500 69.0
20.7700 80.0
20.7900 63.0
20.8100 81.0
20.8300 77.0
20.8500 83.0
20.8700 61.0
20.8900 73.0
20.9100 58.0
20.9300 57.0
20.9500 77.0
20.9700 70.0
20.9900 76.0
21.0100 62.0
21.0300 65.0
21.0500 80.0
21.0700 70.0
21.0900 52.0
21.1100 70.0
21.1300 68.0
21.1500 62.0
21.1700 66.0
21.1900 64.0
21.2100 79.0
21.2300 67.0
21.2500 61.0
21.2700 57.0
21.2900 69.0
21.3100 64.0
21.3300 71.0
21.3500 75.0
21.3700 72.0
21.3900 57.0
21.4100 69.0
21.4300 75.0
21.4500 78.0
21.4700 70.0
21.4900 73.0
21.5100 74.0
21.5300 58.0
21.5500 60.0
21.5700 55.0
21.5900 72.0
21.6100 88.0
21.6300 51.0
21.6500 70.0
21.6700 66.0
21.6900 54.0
21.7100 67.0
21.7300 53.0
21.7500 93.0
21.7700 78.0
21.7900 53.0
21.8100 56.0
21.8300 59.0
21.8500 77.0
21.8700 67.0
21.8900 67.0
21.9100 74.0
21.9300 64.0
21.9500 66.0
21.9700 72.0
21.9900 75.0
22.0100 60.0
22.0300 65.0
22.0500 58.0
22.0700 67.0
22.0900 68.0
22.1100 72.0
22.1300 61.0
22.1500 70.0
22.1700 59.0
22.1900 58.0
22.2100 49.0
22.2300 60.0
22.2500 61.0
22.2700 64.0
22.2900 66.0
22.3100 71.0
22.3300 66.0
22.3500 62.0
22.3700 54.0
22.3900 62.0
22.4100 53.0
22.4300 88.0
22.4500 74.0
22.4700 72.0
22.4900 67.0
22.5100 50.0
22.5300 59.0
22.5500 70.0
22.5700 63.0
22.5900 51.0
22.6100 66.0
22.6300 49.0
22.6500 66.0
22.6700 72.0
22.6900 64.0
22.7100 60.0
22.7300 63.0
22.7500 47.0
22.7700 75.0
22.7900 70.0
22.8100 57.0
22.8300 58.0
22.8500 59.0
22.8700 64.0
22.8900 49.0
22.9100 67.0
22.9300 70.0
22.9500 71.0
22.9700 63.0
22.9900 59.0
23.0100 64.0
23.0300 69.0
23.0500 46.0
23.0700 62.0
23.0900 68.0
23.1100 69.0
23.1300 63.0
23.1500 54.0
23.1700 54.0
23.1900 65.0
23.2100 55.0
23.2300 71.0
23.2500 54.0
23.2700 53.0
23.2900 62.0
23.3100 60.0
23.3300 67.0
23.3500 70.0
23.3700 70.0
23.3900 56.0
23.4100 63.0
23.4300 80.0
23.4500 71.0
23.4700 67.0
23.4900 75.0
23.5100 58.0
23.5300 54.0
23.5500 57.0
23.5700 64.0
23.5900 54.0
23.6100 59.0
23.6300 71.0
23.6500 68.0
23.6700 61.0
23.6900 61.0
23.7100 53.0
23.7300 65.0
23.7500 59.0
23.7700 65.0
23.7900 55.0
23.8100 46.0
23.8300 46.0
23.8500 79.0
23.8700 60.0
23.8900 61.0
23.9100 45.0
23.9300 58.0
23.9500 56.0
23.9700 57.0
23.9900 44.0
24.0100 46.0
24.0300 55.0
24.0500 57.0
24.0700 68.0
24.0900 69.0
24.1100 48.0
24.1300 62.0
24.1500 67.0
24.1700 69.0
24.1900 66.0
24.2100 61.0
24.2300 54.0
24.2500 62.0
24.2700 65.0
24.2900 59.0
24.3100 52.0
24.3300 55.0
24.3500 62.0
24.3700 76.0
24.3900 60.0
24.4100 59.0
24.4300 65.0
24.4500 46.0
24.4700 52.0
24.4900 64.0
24.5100 59.0
24.5300 61.0
24.5500 56.0
24.5700 60.0
24.5900 51.0
24.6100 62.0
24.6300 68.0
24.6500 51.0
24.6700 56.0
24.6900 74.0
24.7100 65.0
24.7300 64.0
24.7500 66.0
24.7700 60.0
24.7900 77.0
24.8100 57.0
24.8300 60.0
24.8500 67.0
24.8700 77.0
24.8900 64.0
24.9100 56.0
24.9300 57.0
24.9500 72.0
24.9700 57.0
24.9900 46.0
25.0100 63.0
25.0300 62.0
25.0500 63.0
25.0700 41.0
25.0900 61.0
25.1100 69.0
25.1300 65.0
25.1500 61.0
25.1700 62.0
25.1900 48.0
25.2100 58.0
25.2300 55.0
25.2500 67.0
25.2700 59.0
25.2900 64.0
25.3100 54.0
25.3300 54.0
25.3500 60.0
25.3700 55.0
25.3900 57.0
25.4100 51.0
25.4300 60.0
25.4500 48.0
25.4700 55.0
25.4900 66.0
25.5100 54.0
25.5300 53.0
25.5500 64.0
25.5700 56.0
25.5900 58.0
25.6100 51.0
25.6300 49.0
25.6500 62.0
25.6700 66.0
25.6900 52.0
25.7100 40.0
25.7300 55.0
25.7500 57.0
25.7700 58.0
25.7900 60.0
25.8100 59.0
25.8300 50.0
25.8500 54.0
25.8700 51.0
25.8900 64.0
25.9100 49.0
25.9300 72.0
25.9500 64.0
25.9700 57.0
25.9900 54.0
26.0100 56.0
26.0300 51.0
26.0500 58.0
26.0700 51.0
26.0900 51.0
26.1100 62.0
26.1300 55.0
26.1500 53.0
26.1700 53.0
26.1900 40.0
26.2100 63.0
26.2300 59.0
26.2500 51.0
26.2700 56.0
26.2900 44.0
26.3100 66.0
26.3300 48.0
26.3500 44.0
26.3700 56.0
26.3900 50.0
26.4100 61.0
26.4300 56.0
26.4500 50.0
26.4700 58.0
26.4900 49.0
26.5100 47.0
26.5300 63.0
26.5500 55.0
26.5700 51.0
26.5900 41.0
26.6100 55.0
26.6300 62.0
26.6500 49.0
26.6700 55.0
26.6900 60.0
26.7100 55.0
26.7300 46.0
26.7500 45.0
26.7700 54.0
26.7900 52.0
26.8100 64.0
26.8300 55.0
26.8500 56.0
26.8700 53.0
26.8900 54.0
26.9100 50.0
26.9300 44.0
26.9500 63.0
26.9700 57.0
26.9900 50.0
27.0100 56.0
27.0300 35.0
27.0500 41.0
27.0700 58.0
27.0900 44.0
27.1100 55.0
27.1300 38.0
27.1500 42.0
27.1700 48.0
27.1900 52.0
27.2100 57.0
27.2300 54.0
27.2500 49.0
27.2700 59.0
27.2900 53.0
27.3100 47.0
27.3300 53.0
27.3500 61.0
27.3700 50.0
27.3900 54.0
27.4100 42.0
27.4300 49.0
27.4500 58.0
27.4700 50.0
27.4900 63.0
27.5100 54.0
27.5300 38.0
27.5500 50.0
27.5700 60.0
27.5900 58.0
27.6100 53.0
27.6300 58.0
27.6500 46.0
27.6700 53.0
27.6900 52.0
27.7100 53.0
27.7300 49.0
27.7500 55.0
27.7700 69.0
27.7900 55.0
27.8100 45.0
27.8300 69.0
27.8500 56.0
27.8700 55.0
27.8900 57.0
27.9100 53.0
27.9300 47.0
27.9500 54.0
27.9700 68.0
27.9900 58.0
28.0100 47.0
28.0300 53.0
28.0500 51.0
28.0700 41.0
28.0900 42.0
28.1100 56.0
28.1300 50.0
28.1500 47.0
28.1700 48.0
28.1900 47.0
28.2100 64.0
28.2300 53.0
28.2500 59.0
28.2700 53.0
28.2900 52.0
28.3100 67.0
28.3300 56.0
28.3500 64.0
28.3700 63.0
28.3900 66.0
28.4100 78.0
28.4300 69.0
28.4500 80.0
28.4700 75.0
28.4900 79.0
28.5100 76.0
28.5300 78.0
28.5500 57.0
28.5700 63.0
28.5900 66.0
28.6100 55.0
28.6300 65.0
28.6500 41.0
28.6700 66.0
28.6900 50.0
28.7100 36.0
28.7300 56.0
28.7500 41.0
28.7700 54.0
28.7900 52.0
28.8100 55.0
28.8300 47.0
28.8500 44.0
28.8700 64.0
28.8900 44.0
28.9100 48.0
28.9300 49.0
28.9500 41.0
28.9700 42.0
28.9900 44.0
29.0100 53.0
29.0300 52.0
29.0500 46.0
29.0700 56.0
29.0900 50.0
29.1100 68.0
29.1300 62.0
29.1500 47.0
29.1700 42.0
29.1900 51.0
29.2100 59.0
29.2300 46.0
29.2500 42.0
29.2700 51.0
29.2900 46.0
29.3100 46.0
29.3300 51.0
29.3500 37.0
29.3700 49.0
29.3900 38.0
29.4100 64.0
29.4300 60.0
29.4500 50.0
29.4700 59.0
29.4900 47.0
29.5100 50.0
29.5300 57.0
29.5500 49.0
29.5700 53.0
29.5900 62.0
29.6100 48.0
29.6300 35.0
29.6500 48.0
29.6700 51.0
29.6900 48.0
29.7100 54.0
29.7300 46.0
29.7500 57.0
29.7700 43.0
29.7900 54.0
29.8100 55.0
29.8300 53.0
29.8500 51.0
29.8700 46.0
29.8900 46.0
29.9100 37.0
29.9300 52.0
29.9500 53.0
29.9700 49.0
29.9900 54.0
30.0100 40.0
30.0300 45.0
30.0500 51.0
30.0700 47.0
30.0900 66.0
30.1100 46.0
30.1300 47.0
30.1500 52.0
30.1700 46.0
30.1900 49.0
30.2100 50.0
30.2300 45.0
30.2500 48.0
30.2700 41.0
30.2900 48.0
30.3100 47.0
30.3300 50.0
30.3500 51.0
30.3700 45.0
30.3900 56.0
30.4100 46.0
30.4300 44.0
30.4500 37.0
30.4700 43.0
30.4900 40.0
30.5100 37.0
30.5300 41.0
30.5500 52.0
30.5700 44.0
30.5900 33.0
30.6100 50.0
30.6300 39.0
30.6500 46.0
30.6700 48.0
30.6900 41.0
30.7100 44.0
30.7300 44.0
30.7500 38.0
30.7700 44.0
30.7900 58.0
30.8100 38.0
30.8300 40.0
30.8500 38.0
30.8700 41.0
30.8900 47.0
30.9100 39.0
30.9300 40.0
30.9500 48.0
30.9700 47.0
30.9900 52.0
31.0100 38.0
31.0300 36.0
31.0500 53.0
31.0700 41.0
31.0900 55.0
31.1100 41.0
31.1300 39.0
31.1500 39.0
31.1700 41.0
31.1900 49.0
31.2100 46.0
31.2300 35.0
31.2500 35.0
31.2700 41.0
31.2900 58.0
31.3100 39.0
31.3300 40.0
31.3500 43.0
31.3700 39.0
31.3900 48.0
31.4100 40.0
31.4300 47.0
31.4500 49.0
31.4700 48.0
31.4900 39.0
31.5100 50.0
31.5300 40.0
31.5500 46.0
31.5700 43.0
31.5900 45.0
31.6100 50.0
31.6300 31.0
31.6500 39.0
31.6700 46.0
31.6900 34.0
31.7100 32.0
31.7300 53.0
31.7500 39.0
31.7700 52.0
31.7900 31.0
31.8100 44.0
31.8300 31.0
31.8500 53.0
31.8700 39.0
31.8900 47.0
31.9100 46.0
31.9300 49.0
31.9500 47.0
31.9700 46.0
31.9900 52.0
32.0100 45.0
32.0300 37.0
32.0500 47.0
32.0700 43.0
32.0900 34.0
32.1100 36.0
32.1300 39.0
32.1500 40.0
32.1700 30.0
32.1900 49.0
32.2100 55.0
32.2300 40.0
32.2500 33.0
32.2700 46.0
32.2900 34.0
32.3100 52.0
32.3300 46.0
32.3500 37.0
32.3700 30.0
32.3900 41.0
32.4100 34.0
32.4300 25.0
32.4500 43.0
32.4700 31.0
32.4900 44.0
32.5100 44.0
32.5300 45.0
32.5500 38.0
32.5700 44.0
32.5900 41.0
32.6100 35.0
32.6300 31.0
32.6500 37.0
32.6700 52.0
32.6900 45.0
32.7100 48.0
32.7300 35.0
32.7500 36.0
32.7700 44.0
32.7900 33.0
32.8100 39.0
32.8300 31.0
32.8500 53.0
32.8700 45.0
32.8900 37.0
32.9100 41.0
32.9300 41.0
32.9500 48.0
32.9700 36.0
32.9900 32.0
33.0100 45.0
33.0300 42.0
33.0500 47.0
33.0700 52.0
33.0900 36.0
33.1100 36.0
33.1300 37.0
33.1500 42.0
33.1700 34.0
33.1900 27.0
33.2100 36.0
33.2300 43.0
33.2500 38.0
33.2700 34.0
33.2900 30.0
33.3100 46.0
33.3300 45.0
33.3500 41.0
33.3700 36.0
33.3900 43.0
33.4100 44.0
33.4300 44.0
33.4500 39.0
33.4700 40.0
33.4900 32.0
33.5100 30.0
33.5300 40.0
33.5500 44.0
33.5700 43.0
33.5900 35.0
33.6100 44.0
33.6300 32.0
33.6500 27.0
33.6700 31.0
33.6900 39.0
33.7100 45.0
33.7300 34.0
33.7500 37.0
33.7700 33.0
33.7900 36.0
33.8100 33.0
33.8300 37.0
33.8500 42.0
33.8700 47.0
33.8900 33.0
33.9100 34.0
33.9300 34.0
33.9500 33.0
33.9700 34.0
33.9900 56.0
34.0100 41.0
34.0300 37.0
34.0500 45.0
34.0700 29.0
34.0900 41.0
34.1100 35.0
34.1300 45.0
34.1500 35.0
34.1700 41.0
34.1900 31.0
34.2100 34.0
34.2300 29.0
34.2500 36.0
34.2700 31.0
34.2900 37.0
34.3100 26.0
34.3300 22.0
34.3500 31.0
34.3700 42.0
34.3900 39.0
34.4100 41.0
34.4300 38.0
34.4500 30.0
34.4700 27.0
34.4900 17.0
34.5100 29.0
34.5300 37.0
34.5500 43.0
34.5700 27.0
34.5900 35.0
34.6100 33.0
34.6300 34.0
34.6500 30.0
34.6700 28.0
34.6900 46.0
34.7100 34.0
34.7300 44.0
34.7500 42.0
34.7700 41.0
34.7900 38.0
34.8100 44.0
34.8300 32.0
34.8500 31.0
34.8700 42.0
34.8900 35.0
34.9100 35.0
34.9300 40.0
34.9500 25.0
34.9700 34.0
34.9900 39.0
35.0100 29.0
35.0300 33.0
35.0500 40.0
35.0700 38.0
35.0900 33.0
35.1100 30.0
35.1300 37.0
35.1500 39.0
35.1700 36.0
35.1900 28.0
35.2100 35.0
35.2300 31.0
35.2500 36.0
35.2700 31.0
35.2900 35.0
35.3100 30.0
35.3300 27.0
35.3500 29.0
35.3700 32.0
35.3900 30.0
35.4100 26.0
35.4300 33.0
35.4500 28.0
35.4700 31.0
35.4900 32.0
35.5100 27.0
35.5300 40.0
35.5500 33.0
35.5700 26.0
35.5900 37.0
35.6100 27.0
35.6300 46.0
35.6500 27.0
35.6700 25.0
35.6900 31.0
35.7100 35.0
35.7300 41.0
35.7500 32.0
35.7700 30.0
35.7900 30.0
35.8100 33.0
35.8300 31.0
35.8500 34.0
35.8700 30.0
35.8900 25.0
35.9100 24.0
35.9300 30.0
35.9500 37.0
35.9700 24.0
35.9900 30.0
36.0100 31.0
36.0300 26.0
36.0500 31.0
36.0700 30.0
36.0900 42.0
36.1100 38.0
36.1300 38.0
36.1500 40.0
36.1700 23.0
36.1900 36.0
36.2100 21.0
36.2300 29.0
36.2500 36.0
36.2700 22.0
36.2900 31.0
36.3100 29.0
36.3300 31.0
36.3500 45.0
36.3700 33.0
36.3900 31.0
36.4100 27.0
36.4300 29.0
36.4500 23.0
36.4700 37.0
36.4900 24.0
36.5100 31.0
36.5300 24.0
36.5500 32.0
36.5700 31.0
36.5900 24.0
36.6100 43.0
36.6300 28.0
36.6500 29.0
36.6700 28.0
36.6900 35.0
36.7100 36.0
36.7300 37.0
36.7500 34.0
36.7700 27.0
36.7900 24.0
36.8100 22.0
36.8300 34.0
36.8500 23.0
36.8700 40.0
36.8900 27.0
36.9100 39.0
36.9300 31.0
36.9500 37.0
36.9700 21.0
36.9900 34.0
37.0100 30.0
37.0300 18.0
37.0500 34.0
37.0700 21.0
37.0900 33.0
37.1100 37.0
37.1300 25.0
37.1500 33.0
37.1700 33.0
37.1900 20.0
37.2100 32.0
37.2300 33.0
37.2500 31.0
37.2700 27.0
37.2900 33.0
37.3100 32.0
37.3300 24.0
37.3500 26.0
37.3700 33.0
37.3900 21.0
37.4100 32.0
37.4300 32.0
37.4500 38.0
37.4700 35.0
37.4900 37.0
37.5100 19.0
37.5300 33.0
37.5500 26.0
37.5700 31.0
37.5900 25.0
37.6100 24.0
37.6300 29.0
37.6500 21.0
37.6700 27.0
37.6900 36.0
37.7100 26.0
37.7300 29.0
37.7500 30.0
37.7700 30.0
37.7900 34.0
37.8100 20.0
37.8300 28.0
37.8500 19.0
37.8700 28.0
37.8900 23.0
37.9100 22.0
37.9300 28.0
37.9500 24.0
37.9700 30.0
37.9900 30.0
38.0100 25.0
38.0300 32.0
38.0500 26.0
38.0700 26.0
38.0900 30.0
38.1100 26.0
38.1300 25.0
38.1500 33.0
38.1700 21.0
38.1900 19.0
38.2100 21.0
38.2300 27.0
38.2500 38.0
38.2700 30.0
38.2900 32.0
38.3100 29.0
38.3300 25.0
38.3500 21.0
38.3700 22.0
38.3900 24.0
38.4100 27.0
38.4300 33.0
38.4500 26.0
38.4700 28.0
38.4900 23.0
38.5100 29.0
38.5300 27.0
38.5500 33.0
38.5700 20.0
38.5900 36.0
38.6100 30.0
38.6300 24.0
38.6500 35.0
38.6700 27.0
38.6900 26.0
38.7100 32.0
38.7300 16.0
38.7500 26.0
38.7700 32.0
38.7900 26.0
38.8100 39.0
38.8300 28.0
38.8500 35.0
38.8700 22.0
38.8900 30.0
38.9100 43.0
38.9300 27.0
38.9500 31.0
38.9700 25.0
38.9900 23.0
39.0100 30.0
39.0300 38.0
39.0500 22.0
39.0700 24.0
39.0900 25.0
39.1100 30.0
39.1300 30.0
39.1500 26.0
39.1700 27.0
39.1900 36.0
39.2100 26.0
39.2300 24.0
39.2500 37.0
39.2700 21.0
39.2900 39.0
39.3100 28.0
39.3300 30.0
39.3500 27.0
39.3700 24.0
39.3900 25.0
39.4100 25.0
39.4300 31.0
39.4500 30.0
39.4700 34.0
39.4900 24.0
39.5100 24.0
39.5300 25.0
39.5500 19.0
39.5700 29.0
39.5900 25.0
39.6100 29.0
39.6300 24.0
39.6500 32.0
39.6700 18.0
39.6900 29.0
39.7100 27.0
39.7300 37.0
39.7500 32.0
39.7700 21.0
39.7900 21.0
39.8100 28.0
39.8300 27.0
39.8500 33.0
39.8700 25.0
39.8900 34.0
39.9100 27.0
39.9300 23.0
39.9500 35.0
39.9700 33.0
39.9900 35.0
40.0100 33.0
40.0300 28.0
40.0500 35.0
40.0700 25.0
40.0900 32.0
40.1100 28.0
40.1300 29.0
40.1500 42.0
40.1700 31.0
40.1900 39.0
40.2100 35.0
40.2300 33.0
40.2500 27.0
40.2700 41.0
40.2900 28.0
40.3100 23.0
40.3300 35.0
40.3500 30.0
40.3700 29.0
40.3900 42.0
40.4100 32.0
40.4300 36.0
40.4500 42.0
40.4700 36.0
40.4900 27.0
40.5100 32.0
40.5300 36.0
40.5500 25.0
40.5700 32.0
40.5900 30.0
40.6100 26.0
40.6300 38.0
40.6500 32.0
40.6700 24.0
40.6900 30.0
40.7100 30.0
40.7300 20.0
40.7500 32.0
40.7700 31.0
40.7900 33.0
40.8100 31.0
40.8300 28.0
40.8500 25.0
40.8700 26.0
40.8900 27.0
40.9100 24.0
40.9300 25.0
40.9500 30.0
40.9700 32.0
40.9900 24.0
41.0100 23.0
41.0300 29.0
41.0500 27.0
41.0700 22.0
41.0900 19.0
41.1100 30.0
41.1300 21.0
41.1500 31.0
41.1700 22.0
41.1900 30.0
41.2100 25.0
41.2300 19.0
41.2500 29.0
41.2700 30.0
41.2900 20.0
41.3100 31.0
41.3300 27.0
41.3500 18.0
41.3700 18.0
41.3900 34.0
41.4100 21.0
41.4300 34.0
41.4500 24.0
41.4700 24.0
41.4900 23.0
41.5100 24.0
41.5300 26.0
41.5500 30.0
41.5700 30.0
41.5900 27.0
41.6100 31.0
41.6300 17.0
41.6500 27.0
41.6700 19.0
41.6900 19.0
41.7100 22.0
41.7300 26.0
41.7500 18.0
41.7700 27.0
41.7900 30.0
41.8100 19.0
41.8300 28.0
41.8500 31.0
41.8700 31.0
41.8900 21.0
41.9100 18.0
41.9300 24.0
41.9500 42.0
41.9700 23.0
41.9900 24.0
42.0100 25.0
42.0300 24.0
42.0500 27.0
42.0700 30.0
42.0900 28.0
42.1100 28.0
42.1300 23.0
42.1500 25.0
42.1700 24.0
42.1900 17.0
42.2100 17.0
42.2300 28.0
42.2500 20.0
42.2700 24.0
42.2900 20.0
42.3100 26.0
42.3300 18.0
42.3500 17.0
42.3700 25.0
42.3900 20.0
42.4100 27.0
42.4300 32.0
42.4500 25.0
42.4700 23.0
42.4900 29.0
42.5100 22.0
42.5300 23.0
42.5500 36.0
42.5700 16.0
42.5900 26.0
42.6100 17.0
42.6300 24.0
42.6500 11.0
42.6700 32.0
42.6900 34.0
42.7100 31.0
42.7300 23.0
42.7500 25.0
42.7700 32.0
42.7900 34.0
42.8100 25.0
42.8300 30.0
42.8500 31.0
42.8700 23.0
42.8900 33.0
42.9100 23.0
42.9300 27.0
42.9500 31.0
42.9700 29.0
42.9900 31.0
43.0100 35.0
43.0300 25.0
43.0500 27.0
43.0700 24.0
43.0900 38.0
43.1100 19.0
43.1300 33.0
43.1500 29.0
43.1700 27.0
43.1900 33.0
43.2100 23.0
43.2300 27.0
43.2500 29.0
43.2700 31.0
43.2900 14.0
43.3100 30.0
43.3300 21.0
43.3500 21.0
43.3700 20.0
43.3900 26.0
43.4100 20.0
43.4300 21.0
43.4500 19.0
43.4700 24.0
43.4900 30.0
43.5100 30.0
43.5300 32.0
43.5500 25.0
43.5700 24.0
43.5900 25.0
43.6100 24.0
43.6300 34.0
43.6500 20.0
43.6700 25.0
43.6900 18.0
43.7100 26.0
43.7300 29.0
43.7500 16.0
43.7700 26.0
43.7900 17.0
43.8100 18.0
43.8300 40.0
43.8500 26.0
43.8700 28.0
43.8900 29.0
43.9100 25.0
43.9300 34.0
43.9500 22.0
43.9700 23.0
43.9900 28.0
44.0100 43.0
44.0300 20.0
44.0500 22.0
44.0700 25.0
44.0900 30.0
44.1100 29.0
44.1300 21.0
44.1500 25.0
44.1700 23.0
44.1900 21.0
44.2100 26.0
44.2300 38.0
44.2500 17.0
44.2700 16.0
44.2900 27.0
44.3100 35.0
44.3300 24.0
44.3500 20.0
44.3700 25.0
44.3900 26.0
44.4100 28.0
44.4300 14.0
44.4500 23.0
44.4700 31.0
44.4900 26.0
44.5100 26.0
44.5300 19.0
44.5500 23.0
44.5700 25.0
44.5900 22.0
44.6100 33.0
44.6300 24.0
44.6500 20.0
44.6700 26.0
44.6900 25.0
44.7100 22.0
44.7300 23.0
44.7500 24.0
44.7700 21.0
44.7900 30.0
44.8100 31.0
44.8300 22.0
44.8500 17.0
44.8700 26.0
44.8900 28.0
44.9100 21.0
44.9300 21.0
44.9500 27.0
44.9700 24.0
44.9900 25.0
45.0100 34.0
45.0300 31.0
45.0500 20.0
45.0700 25.0
45.0900 23.0
45.1100 29.0
45.1300 16.0
45.1500 25.0
45.1700 27.0
45.1900 24.0
45.2100 24.0
45.2300 22.0
45.2500 29.0
45.2700 28.0
45.2900 26.0
45.3100 22.0
45.3300 34.0
45.3500 25.0
45.3700 27.0
45.3900 27.0
45.4100 27.0
45.4300 20.0
45.4500 22.0
45.4700 32.0
45.4900 29.0
45.5100 20.0
45.5300 18.0
45.5500 23.0
45.5700 24.0
45.5900 31.0
45.6100 22.0
45.6300 23.0
45.6500 21.0
45.6700 34.0
45.6900 21.0
45.7100 26.0
45.7300 27.0
45.7500 28.0
45.7700 24.0
45.7900 31.0
45.8100 20.0
45.8300 29.0
45.8500 30.0
45.8700 28.0
45.8900 25.0
45.9100 22.0
45.9300 22.0
45.9500 24.0
45.9700 28.0
45.9900 33.0
46.0100 30.0
46.0300 25.0
46.0500 20.0
46.0700 38.0
46.0900 26.0
46.1100 25.0
46.1300 20.0
46.1500 25.0
46.1700 25.0
46.1900 17.0
46.2100 24.0
46.2300 22.0
46.2500 22.0
46.2700 19.0
46.2900 22.0
46.3100 21.0
46.3300 25.0
46.3500 30.0
46.3700 22.0
46.3900 26.0
46.4100 26.0
46.4300 24.0
46.4500 31.0
46.4700 33.0
46.4900 18.0
46.5100 25.0
46.5300 18.0
46.5500 22.0
46.5700 28.0
46.5900 27.0
46.6100 32.0
46.6300 19.0
46.6500 19.0
46.6700 26.0
46.6900 26.0
46.7100 29.0
46.7300 27.0
46.7500 23.0
46.7700 28.0
46.7900 31.0
46.8100 39.0
46.8300 16.0
46.8500 28.0
46.8700 31.0
46.8900 31.0
46.9100 17.0
46.9300 24.0
46.9500 26.0
46.9700 28.0
46.9900 20.0
47.0100 25.0
47.0300 30.0
47.0500 22.0
47.0700 27.0
47.0900 25.0
47.1100 29.0
47.1300 28.0
47.1500 27.0
47.1700 30.0
47.1900 22.0
47.2100 27.0
47.2300 30.0
47.2500 26.0
47.2700 40.0
47.2900 30.0
47.3100 36.0
47.3300 46.0
47.3500 45.0
47.3700 31.0
47.3900 37.0
47.4100 41.0
47.4300 30.0
47.4500 39.0
47.4700 26.0
47.4900 34.0
47.5100 36.0
47.5300 23.0
47.5500 22.0
47.5700 20.0
47.5900 21.0
47.6100 42.0
47.6300 23.0
47.6500 21.0
47.6700 24.0
47.6900 23.0
47.7100 30.0
47.7300 22.0
47.7500 17.0
47.7700 35.0
47.7900 23.0
47.8100 19.0
47.8300 25.0
47.8500 25.0
47.8700 26.0
47.8900 24.0
47.9100 22.0
47.9300 23.0
47.9500 26.0
47.9700 14.0
47.9900 33.0
48.0100 29.0
48.0300 19.0
48.0500 22.0
48.0700 25.0
48.0900 24.0
48.1100 27.0
48.1300 23.0
48.1500 24.0
48.1700 33.0
48.1900 25.0
48.2100 32.0
48.2300 26.0
48.2500 17.0
48.2700 22.0
48.2900 31.0
48.3100 29.0
48.3300 28.0
48.3500 15.0
48.3700 28.0
48.3900 25.0
48.4100 19.0
48.4300 10.0
48.4500 30.0
48.4700 23.0
48.4900 18.0
48.5100 16.0
48.5300 23.0
48.5500 24.0
48.5700 28.0
48.5900 27.0
48.6100 26.0
48.6300 20.0
48.6500 21.0
48.6700 31.0
48.6900 26.0
48.7100 25.0
48.7300 17.0
48.7500 23.0
48.7700 27.0
48.7900 25.0
48.8100 32.0
48.8300 14.0
48.8500 28.0
48.8700 15.0
48.8900 18.0
48.9100 22.0
48.9300 21.0
48.9500 15.0
48.9700 15.0
48.9900 19.0
49.0100 23.0
49.0300 27.0
49.0500 22.0
49.0700 21.0
49.0900 21.0
49.1100 15.0
49.1300 27.0
49.1500 21.0
49.1700 20.0
49.1900 29.0
49.2100 32.0
49.2300 26.0
49.2500 22.0
49.2700 23.0
49.2900 24.0
49.3100 21.0
49.3300 37.0
49.3500 20.0
49.3700 22.0
49.3900 20.0
49.4100 24.0
49.4300 21.0
49.4500 24.0
49.4700 24.0
49.4900 22.0
49.5100 23.0
49.5300 23.0
49.5500 27.0
49.5700 24.0
49.5900 29.0
49.6100 28.0
49.6300 26.0
49.6500 24.0
49.6700 15.0
49.6900 22.0
49.7100 13.0
49.7300 31.0
49.7500 26.0
49.7700 28.0
49.7900 24.0
49.8100 31.0
49.8300 30.0
49.8500 22.0
49.8700 20.0
49.8900 19.0
49.9100 31.0
49.9300 14.0
49.9500 25.0
49.9700 22.0
49.9900 23.0
50.0100 21.0
50.0300 23.0
50.0500 17.0
50.0700 25.0
50.0900 24.0
50.1100 33.0
50.1300 27.0
50.1500 23.0
50.1700 21.0
50.1900 21.0
50.2100 21.0
50.2300 15.0
50.2500 24.0
50.2700 22.0
50.2900 21.0
50.3100 16.0
50.3300 26.0
50.3500 22.0
50.3700 19.0
50.3900 29.0
50.4100 20.0
50.4300 30.0
50.4500 22.0
50.4700 31.0
50.4900 16.0
50.5100 28.0
50.5300 25.0
50.5500 22.0
50.5700 28.0
50.5900 27.0
50.6100 18.0
50.6300 20.0
50.6500 18.0
50.6700 20.0
50.6900 23.0
50.7100 21.0
50.7300 20.0
50.7500 20.0
50.7700 21.0
50.7900 21.0
50.8100 28.0
50.8300 22.0
50.8500 17.0
50.8700 18.0
50.8900 19.0
50.9100 17.0
50.9300 17.0
50.9500 31.0
50.9700 19.0
50.9900 22.0
51.0100 26.0
51.0300 21.0
51.0500 14.0
51.0700 23.0
51.0900 17.0
51.1100 19.0
51.1300 25.0
51.1500 17.0
51.1700 15.0
51.1900 18.0
51.2100 15.0
51.2300 23.0
51.2500 19.0
51.2700 19.0
51.2900 28.0
51.3100 34.0
51.3300 22.0
51.3500 28.0
51.3700 23.0
51.3900 22.0
51.4100 25.0
51.4300 20.0
51.4500 30.0
51.4700 21.0
51.4900 22.0
51.5100 26.0
51.5300 22.0
51.5500 18.0
51.5700 23.0
51.5900 23.0
51.6100 22.0
51.6300 24.0
51.6500 24.0
51.6700 22.0
51.6900 21.0
51.7100 10.0
51.7300 19.0
51.7500 22.0
51.7700 16.0
51.7900 21.0
51.8100 28.0
51.8300 19.0
51.8500 26.0
51.8700 26.0
51.8900 28.0
51.9100 18.0
51.9300 16.0
51.9500 13.0
51.9700 27.0
51.9900 16.0
52.0100 18.0
52.0300 18.0
52.0500 21.0
52.0700 18.0
52.0900 18.0
52.1100 17.0
52.1300 23.0
52.1500 21.0
52.1700 21.0
52.1900 19.0
52.2100 19.0
52.2300 16.0
52.2500 20.0
52.2700 22.0
52.2900 19.0
52.3100 25.0
52.3300 20.0
52.3500 18.0
52.3700 18.0
52.3900 11.0
52.4100 22.0
52.4300 18.0
52.4500 22.0
52.4700 18.0
52.4900 25.0
52.5100 22.0
52.5300 20.0
52.5500 19.0
52.5700 23.0
52.5900 19.0
52.6100 23.0
52.6300 29.0
52.6500 20.0
52.6700 20.0
52.6900 23.0
52.7100 21.0
52.7300 19.0
52.7500 23.0
52.7700 30.0
52.7900 21.0
52.8100 21.0
52.8300 23.0
52.8500 26.0
52.8700 16.0
52.8900 19.0
52.9100 23.0
52.9300 27.0
52.9500 10.0
52.9700 25.0
52.9900 22.0
53.0100 29.0
53.0300 23.0
53.0500 22.0
53.0700 16.0
53.0900 23.0
53.1100 19.0
53.1300 29.0
53.1500 19.0
53.1700 29.0
53.1900 16.0
53.2100 19.0
53.2300 17.0
53.2500 25.0
53.2700 20.0
53.2900 21.0
53.3100 17.0
53.3300 22.0
53.3500 18.0
53.3700 27.0
53.3900 18.0
53.4100 27.0
53.4300 27.0
53.4500 17.0
53.4700 19.0
53.4900 30.0
53.5100 23.0
53.5300 25.0
53.5500 22.0
53.5700 9.0
53.5900 25.0
53.6100 19.0
53.6300 14.0
53.6500 21.0
53.6700 15.0
53.6900 21.0
53.7100 27.0
53.7300 25.0
53.7500 13.0
53.7700 22.0
53.7900 18.0
53.8100 33.0
53.8300 14.0
53.8500 28.0
53.8700 25.0
53.8900 22.0
53.9100 21.0
53.9300 12.0
53.9500 19.0
53.9700 21.0
53.9900 25.0
54.0100 25.0
54.0300 15.0
54.0500 23.0
54.0700 21.0
54.0900 16.0
54.1100 23.0
54.1300 22.0
54.1500 18.0
54.1700 18.0
54.1900 26.0
54.2100 21.0
54.2300 22.0
54.2500 14.0
54.2700 17.0
54.2900 17.0
54.3100 20.0
54.3300 22.0
54.3500 21.0
54.3700 14.0
54.3900 20.0
54.4100 20.0
54.4300 16.0
54.4500 16.0
54.4700 22.0
54.4900 21.0
54.5100 28.0
54.5300 14.0
54.5500 24.0
54.5700 16.0
54.5900 16.0
54.6100 21.0
54.6300 21.0
54.6500 15.0
54.6700 23.0
54.6900 15.0
54.7100 22.0
54.7300 21.0
54.7500 18.0
54.7700 10.0
54.7900 12.0
54.8100 16.0
54.8300 14.0
54.8500 23.0
54.8700 18.0
54.8900 15.0
54.9100 18.0
54.9300 19.0
54.9500 19.0
54.9700 20.0
54.9900 14.0
55.0100 21.0
55.0300 19.0
55.0500 18.0
55.0700 18.0
55.0900 14.0
55.1100 12.0
55.1300 16.0
55.1500 11.0
55.1700 20.0
55.1900 15.0
55.2100 12.0
55.2300 14.0
55.2500 19.0
55.2700 19.0
55.2900 21.0
55.3100 19.0
55.3300 21.0
55.3500 30.0
55.3700 18.0
55.3900 17.0
55.4100 18.0
55.4300 18.0
55.4500 14.0
55.4700 19.0
55.4900 20.0
55.5100 19.0
55.5300 17.0
55.5500 24.0
55.5700 14.0
55.5900 18.0
55.6100 17.0
55.6300 30.0
55.6500 15.0
55.6700 17.0
55.6900 17.0
55.7100 15.0
55.7300 20.0
55.7500 20.0
55.7700 19.0
55.7900 20.0
55.8100 22.0
55.8300 22.0
55.8500 9.0
55.8700 22.0
55.8900 17.0
55.9100 21.0
55.9300 30.0
55.9500 23.0
55.9700 18.0
55.9900 17.0
56.0100 12.0
56.0300 27.0
56.0500 21.0
56.0700 25.0
56.0900 24.0
56.1100 17.0
56.1300 21.0
56.1500 24.0
56.1700 22.0
56.1900 22.0
56.2100 15.0
56.2300 19.0
56.2500 20.0
56.2700 16.0
56.2900 16.0
56.3100 25.0
56.3300 27.0
56.3500 21.0
56.3700 26.0
56.3900 23.0
56.4100 19.0
56.4300 27.0
56.4500 22.0
56.4700 17.0
56.4900 13.0
56.5100 21.0
56.5300 13.0
56.5500 17.0
56.5700 13.0
56.5900 22.0
56.6100 15.0
56.6300 20.0
56.6500 22.0
56.6700 21.0
56.6900 21.0
56.7100 17.0
56.7300 19.0
56.7500 14.0
56.7700 17.0
56.7900 16.0
56.8100 21.0
56.8300 19.0
56.8500 18.0
56.8700 22.0
56.8900 25.0
56.9100 20.0
56.9300 20.0
56.9500 14.0
56.9700 19.0
56.9900 21.0
57.0100 22.0
57.0300 17.0
57.0500 22.0
57.0700 21.0
57.0900 18.0
57.1100 19.0
57.1300 16.0
57.1500 22.0
57.1700 14.0
57.1900 16.0
57.2100 17.0
57.2300 20.0
57.2500 16.0
57.2700 20.0
57.2900 17.0
57.3100 17.0
57.3300 24.0
57.3500 26.0
57.3700 23.0
57.3900 20.0
57.4100 17.0
57.4300 21.0
57.4500 20.0
57.4700 21.0
57.4900 17.0
57.5100 18.0
57.5300 15.0
57.5500 16.0
57.5700 27.0
57.5900 17.0
57.6100 13.0
57.6300 18.0
57.6500 17.0
57.6700 16.0
57.6900 20.0
57.7100 29.0
57.7300 23.0
57.7500 15.0
57.7700 7.0
57.7900 23.0
57.8100 18.0
57.8300 18.0
57.8500 20.0
57.8700 28.0
57.8900 18.0
57.9100 24.0
57.9300 14.0
57.9500 16.0
57.9700 16.0
57.9900 15.0
58.0100 20.0
58.0300 20.0
58.0500 17.0
58.0700 25.0
58.0900 23.0
58.1100 18.0
58.1300 20.0
58.1500 14.0
58.1700 31.0
58.1900 15.0
58.2100 24.0
58.2300 20.0
58.2500 17.0
58.2700 16.0
58.2900 14.0
58.3100 16.0
58.3300 21.0
58.3500 20.0
58.3700 26.0
58.3900 18.0
58.4100 28.0
58.4300 21.0
58.4500 14.0
58.4700 23.0
58.4900 25.0
58.5100 14.0
58.5300 16.0
58.5500 24.0
58.5700 19.0
58.5900 20.0
58.6100 24.0
58.6300 22.0
58.6500 26.0
58.6700 21.0
58.6900 21.0
58.7100 11.0
58.7300 22.0
58.7500 18.0
58.7700 17.0
58.7900 22.0
58.8100 22.0
58.8300 15.0
58.8500 20.0
58.8700 25.0
58.8900 20.0
58.9100 26.0
58.9300 24.0
58.9500 24.0
58.9700 19.0
58.9900 24.0
59.0100 22.0
59.0300 23.0
59.0500 25.0
59.0700 21.0
59.0900 18.0
59.1100 13.0
59.1300 24.0
59.1500 22.0
59.1700 22.0
59.1900 19.0
59.2100 21.0
59.2300 26.0
59.2500 22.0
59.2700 18.0
59.2900 17.0
59.3100 21.0
59.3300 19.0
59.3500 18.0
59.3700 18.0
59.3900 12.0
59.4100 10.0
59.4300 16.0
59.4500 15.0
59.4700 16.0
59.4900 21.0
59.5100 14.0
59.5300 18.0
59.5500 19.0
59.5700 14.0
59.5900 14.0
59.6100 15.0
59.6300 18.0
59.6500 20.0
59.6700 19.0
59.6900 13.0
59.7100 18.0
59.7300 12.0
59.7500 13.0
59.7700 18.0
59.7900 18.0
59.8100 14.0
59.8300 27.0
59.8500 26.0
59.8700 17.0
59.8900 12.0
59.9100 18.0
59.9300 10.0
59.9500 24.0
59.9700 19.0
59.9900 14.0
